Name,Yannick Börner
Date of Birth,"29. Sep 1994"
Recorded Date,2020-01-29 23:30:56 +0100
Classification,Sinus Rhythm
Symptoms,
Software Version,1.51
Device,"Watch4,2"
Sample Rate,513,578 hertz


Lead,Lead I
Unit,µV

-379,855
-517,699
-522,679
-485,339
-469,979
-454,161
-428,715
-415,29
-415,611
-417,936
-418,368
-417,819
-419,391
-426,829
-440,43
-457,538
-474,673
-489,174
-499,549
-504,636
-503,393
-495,031
-479,609
-458,584
-434,154
-407,842
-380,646
-353,488
-327,188
-302,729
-280,773
-261,097
-242,984
-226,039
-210,179
-195,482
-182,105
-169,942
-158,861
-149,026
-140,76
-134,278
-129,639
-126,722
-125,298
-125,248
-126,494
-128,906
-132,314
-136,488
-141,211
-146,339
-151,777
-157,442
-163,267
-169,194
-175,186
-181,286
-187,579
-194,185
-201,253
-208,924
-217,329
-226,616
-236,946
-248,502
-261,477
-276,029
-292,291
-310,376
-330,362
-352,298
-376,201
-402,008
-429,596
-458,804
-489,413
-521,182
-553,851
-587,125
-620,671
-654,119
-687,072
-719,139
-749,943
-779,104
-806,266
-831,099
-853,299
-872,629
-888,912
-902,003
-911,823
-918,343
-921,571
-921,582
-918,521
-912,595
-904,07
-893,247
-880,451
-866,039
-850,384
-833,862
-816,859
-799,729
-782,804
-766,413
-750,855
-736,389
-723,25
-711,616
-701,598
-693,25
-686,568
-681,497
-677,954
-675,819
-674,938
-675,145
-676,25
-678,066
-680,403
-683,055
-685,819
-688,503
-690,924
-692,92
-694,376
-695,208
-695,367
-694,84
-693,63
-691,755
-689,252
-686,169
-682,564
-678,503
-674,056
-669,3
-664,324
-659,212
-654,048
-648,917
-643,884
-638,997
-634,293
-629,788
-625,491
-621,414
-617,564
-613,937
-610,521
-607,293
-604,224
-601,282
-598,423
-595,597
-592,754
-589,827
-586,749
-583,461
-579,896
-575,996
-571,709
-566,969
-561,706
-555,864
-549,401
-542,283
-534,493
-526,005
-516,809
-506,909
-496,319
-485,072
-473,213
-460,782
-447,842
-434,46
-420,698
-406,648
-392,406
-378,063
-363,704
-349,414
-335,272
-321,376
-307,826
-294,697
-282,058
-269,963
-258,46
-247,606
-237,436
-227,972
-219,233
-211,217
-203,914
-197,318
-191,419
-186,193
-181,613
-177,633
-174,19
-171,243
-168,756
-166,691
-165,021
-163,701
-162,7
-162,005
-161,602
-161,484
-161,646
-162,074
-162,755
-163,688
-164,867
-166,29
-167,971
-169,908
-172,095
-174,534
-177,218
-180,144
-183,309
-186,701
-190,305
-194,119
-198,138
-202,362
-206,81
-211,499
-216,459
-221,735
-227,355
-233,347
-239,746
-246,571
-253,838
-261,561
-269,724
-278,302
-287,263
-296,555
-306,119
-315,885
-325,743
-335,561
-345,199
-354,492
-363,291
-371,448
-378,796
-385,185
-390,484
-394,584
-397,424
-398,973
-399,209
-398,137
-395,792
-392,235
-387,582
-381,991
-375,626
-368,678
-361,341
-353,826
-346,382
-339,256
-332,674
-326,834
-321,894
-317,996
-315,275
-313,844
-313,772
-315,09
-317,78
-321,783
-327,023
-333,392
-340,758
-348,948
-357,752
-366,938
-376,278
-385,551
-394,535
-402,998
-410,691
-417,377
-422,845
-426,904
-429,389
-430,156
-429,093
-426,121
-421,193
-414,294
-405,427
-394,623
-381,937
-367,445
-351,253
-333,502
-314,369
-294,057
-272,789
-250,797
-228,321
-205,607
-182,876
-160,335
-138,183
-116,616
-95,843
-76,056
-57,434
-40,143
-24,322
-10,087
2,499
13,419
22,706
30,418
36,631
41,439
44,939
47,243
48,472
48,754
48,236
47,069
45,424
43,491
41,461
39,512
37,781
36,352
35,27
34,571
34,27
34,363
34,816
35,555
36,51
37,62
38,838
40,113
41,348
42,4
43,12
43,362
43,01
42,007
40,284
37,752
34,423
30,397
25,883
21,248
16,799
12,743
9,352
6,848
5,237
4,419
4,036
3,463
2,305
0,254
-3,138
-7,97
-13,902
-20,287
-25,915
-29,368
-29,635
-25,568
-15,803
0,427
23,327
52,319
85,785
121,975
159,234
195,151
226,781
251,334
266,186
269,758
261,502
240,805
207,519
162,765
108,624
48,026
-15,582
-79,457
-141,027
-197,09
-244,869
-282,471
-308,9
-324,424
-329,882
-325,743
-313,143
-294,283
-271,465
-246,97
-222,696
-199,706
-179,093
-162,418
-150,452
-143,024
-139,585
-139,126
-140,657
-143,519
-146,608
-148,268
-147,386
-143,406
-136,075
-125,596
-112,19
-95,929
-77,264
-56,998
-35,614
-13,34
9,752
33,857
59,08
85,391
112,898
141,792
172,109
203,765
236,56
270,144
304,23
338,575
372,886
406,852
440,137
472,413
503,404
532,889
560,666
586,553
610,385
632,009
651,324
668,264
682,784
694,868
704,489
711,625
716,306
718,595
718,604
716,474
712,335
706,304
698,504
689,042
678,024
665,568
651,775
636,74
620,58
603,411
585,371
566,615
547,263
527,411
507,134
486,481
465,507
444,288
422,898
401,423
379,973
358,642
337,536
316,764
296,412
276,555
257,248
238,523
220,429
203,033
186,42
170,693
155,957
142,298
129,798
118,53
108,552
99,92
92,669
86,812
82,369
79,365
77,851
77,886
79,508
82,73
87,528
93,848
101,623
110,774
121,188
132,73
145,242
158,55
172,505
186,966
201,781
216,767
231,69
246,297
260,349
273,615
285,889
296,983
306,707
314,902
321,473
326,37
329,586
331,14
331,028
329,242
325,812
320,804
314,352
306,626
297,79
288,022
277,514
266,471
255,124
243,685
232,301
221,073
210,072
199,352
188,993
179,089
169,694
160,833
152,498
144,651
137,266
130,312
123,715
117,373
111,153
104,924
98,607
92,164
85,566
78,794
71,814
64,584
57,092
49,352
41,375
33,179
24,765
16,128
7,307
-1,617
-10,541
-19,349
-27,945
-36,256
-44,198
-51,68
-58,62
-64,936
-70,571
-75,494
-79,648
-82,968
-85,377
-86,787
-87,147
-86,446
-84,687
-81,899
-78,12
-73,398
-67,807
-61,44
-54,374
-46,668
-38,37
-29,509
-20,134
-10,311
-0,11
10,397
21,153
32,119
43,272
54,603
66,133
77,912
90,006
102,497
115,441
128,868
142,788
157,194
172,073
187,409
203,177
219,336
235,846
252,663
269,729
286,961
304,246
321,43
338,343
354,82
370,704
385,853
400,158
413,525
425,882
437,187
447,413
456,541
464,551
471,408
477,087
481,59
484,95
487,235
488,534
488,931
488,527
487,437
485,758
483,58
480,973
477,974
474,62
470,967
467,087
463,095
459,123
455,287
451,702
448,467
445,676
443,434
441,82
440,883
440,676
441,25
442,678
445,063
448,496
453,031
458,686
465,417
473,144
481,773
491,189
501,257
511,822
522,695
533,699
544,674
555,451
565,85
575,658
584,624
592,502
599,069
604,14
607,584
609,306
609,24
607,348
603,624
598,099
590,848
581,958
571,525
559,669
546,534
532,308
517,223
501,53
485,482
469,309
453,216
437,379
421,952
407,067
392,839
379,351
366,651
354,77
343,716
333,479
324,027
315,288
307,16
299,515
292,211
285,112
278,091
271,043
263,882
256,536
248,936
241,037
232,812
224,248
215,349
206,128
196,61
186,835
176,865
166,775
156,655
146,594
136,679
126,984
117,566
108,475
99,757
91,448
83,575
76,159
69,21
62,739
56,757
51,268
46,273
41,764
37,725
34,14
30,988
28,258
25,946
24,05
22,571
21,508
20,86
20,627
20,805
21,387
22,353
23,674
25,321
27,264
29,472
31,923
34,585
37,427
40,412
43,501
46,655
49,846
53,046
56,232
59,397
62,549
65,708
68,923
72,247
75,735
79,442
83,42
87,716
92,376
97,445
102,961
108,953
115,434
122,393
129,809
137,621
145,734
154,029
162,337
170,468
178,218
185,368
191,692
196,984
201,041
203,662
204,666
203,885
201,175
196,448
189,647
180,77
169,876
157,061
142,493
126,408
109,076
90,826
72,021
53,017
34,182
15,901
-1,455
-17,509
-31,904
-44,347
-54,577
-62,382
-67,61
-70,141
-69,927
-66,999
-61,44
-53,419
-43,185
-31,008
-17,205
-2,127
13,881
30,425
47,059
63,44
79,315
94,536
109,106
123,018
136,209
148,711
160,665
172,101
182,825
192,347
199,826
204,428
205,633
203,027
196,173
185,053
170,354
153,462
136,545
122,069
112,12
108,628
113,585
128,301
152,884
186,386
226,721
270,936
315,92
358,256
394,01
419,62
432,678
431,709
416,122
386,508
344,407
292,321
233,849
172,934
112,9
56,677
7,251
-33,097
-63,213
-82,951
-93,361
-96,246
-93,114
-85,379
-75,301
-65,221
-56,886
-51,63
-49,894
-51,398
-56,188
-64,477
-75,613
-88,537
-102,189
-115,335
-127,331
-138,096
-147,241
-154,206
-158,885
-161,426
-162,248
-162,132
-161,498
-160,417
-159,094
-157,761
-156,546
-155,534
-154,599
-153,406
-151,795
-149,768
-147,351
-144,636
-141,697
-138,587
-135,419
-132,359
-129,54
-127,049
-124,935
-123,203
-121,877
-121,017
-120,693
-120,965
-121,866
-123,426
-125,663
-128,616
-132,328
-136,808
-142,055
-148,058
-154,791
-162,24
-170,387
-179,193
-188,601
-198,527
-208,86
-219,497
-230,339
-241,263
-252,124
-262,734
-272,871
-282,33
-290,9
-298,365
-304,518
-309,145
-312,055
-313,103
-312,173
-309,173
-304,045
-296,74
-287,229
-275,537
-261,743
-245,986
-228,465
-209,402
-189,047
-167,69
-145,644
-123,233
-100,775
-78,558
-56,855
-35,941
-16,078
2,482
19,509
34,816
48,273
59,796
69,356
76,964
82,664
86,548
88,742
89,395
88,654
86,671
83,596
79,601
74,868
69,576
63,894
57,971
51,918
45,822
39,742
33,698
27,695
21,711
15,69
9,572
3,29
-3,231
-10,066
-17,299
-25,032
-33,35
-42,327
-52,027
-62,478
-73,692
-85,665
-98,355
-111,706
-125,649
-140,084
-154,899
-169,98
-185,187
-200,384
-215,437
-230,188
-244,509
-258,283
-271,401
-283,782
-295,356
-306,062
-315,873
-324,781
-332,779
-339,891
-346,154
-351,613
-356,356
-360,473
-364,055
-367,207
-370,015
-372,547
-374,876
-377,058
-379,141
-381,168
-383,15
-385,082
-386,969
-388,805
-390,588
-392,297
-393,841
-395,101
-395,953
-396,261
-395,952
-394,952
-393,141
-390,492
-387,045
-382,893
-378,294
-373,468
-368,429
-363,21
-357,842
-352,172
-346,128
-339,564
-332,026
-323,305
-313,585
-303,124
-292,435
-282,274
-273,204
-266,018
-261,89
-261,636
-265,714
-274,276
-286,937
-303,113
-322,317
-343,62
-365,67
-387,15
-406,732
-423,496
-437,116
-447,354
-453,914
-456,785
-456,219
-452,731
-447,2
-440,233
-431,919
-422,24
-411,406
-399,815
-388,017
-376,515
-365,389
-354,731
-345,09
-337,25
-331,642
-328,295
-326,751
-326,204
-326,208
-326,499
-326,484
-325,369
-322,568
-317,752
-311,067
-303,097
-294,15
-284,332
-273,853
-262,961
-251,909
-240,904
-229,918
-218,706
-207,165
-195,339
-183,339
-171,359
-159,553
-148,052
-137,022
-126,658
-117,13
-108,542
-100,931
-94,273
-88,521
-83,638
-79,591
-76,343
-73,832
-71,991
-70,734
-69,96
-69,583
-69,515
-69,676
-70,016
-70,495
-71,092
-71,811
-72,672
-73,706
-74,939
-76,385
-78,041
-79,902
-81,956
-84,182
-86,567
-89,091
-91,723
-94,426
-97,146
-99,808
-102,338
-104,657
-106,668
-108,282
-109,425
-110,049
-110,144
-109,732
-108,852
-107,569
-105,967
-104,128
-102,151
-100,133
-98,157
-96,321
-94,714
-93,426
-92,558
-92,218
-92,489
-93,427
-95,063
-97,379
-100,341
-103,882
-107,902
-112,29
-116,921
-121,682
-126,48
-131,236
-135,879
-140,349
-144,587
-148,527
-152,119
-155,323
-158,1
-160,439
-162,345
-163,843
-164,989
-165,861
-166,553
-167,157
-167,76
-168,417
-169,162
-170,002
-170,918
-171,887
-172,866
-173,819
-174,718
-175,534
-176,232
-176,773
-177,112
-177,173
-176,872
-176,104
-174,742
-172,693
-169,907
-166,361
-162,078
-157,108
-151,52
-145,394
-138,814
-131,855
-124,59
-117,083
-109,383
-101,559
-93,687
-85,868
-78,238
-70,908
-63,952
-57,423
-51,338
-45,681
-40,423
-35,507
-30,844
-26,355
-21,971
-17,63
-13,291
-8,921
-4,483
0,073
4,816
9,81
15,1
20,718
26,694
33,039
39,76
46,844
54,248
61,926
69,85
77,994
86,348
94,933
103,77
112,876
122,272
131,963
141,957
152,26
162,852
173,699
184,752
195,947
207,211
218,475
229,636
240,58
251,197
261,322
270,768
279,349
286,843
293,052
297,807
300,915
302,178
301,503
298,905
294,535
288,709
281,731
273,849
265,379
256,717
248,143
239,697
231,115
221,799
211,176
199,012
185,168
169,401
151,791
132,975
114,129
97,152
84,091
76,389
75,326
82,354
98,327
123,316
156,586
196,131
239,345
283,905
327,108
365,556
396,096
415,897
422,715
415,563
394,094
358,148
308,585
247,632
178,179
103,702
27,785
-46,448
-115,768
-176,867
-227,205
-265,543
-291,664
-306,195
-310,134
-304,606
-291,523
-273,476
-253,06
-232,298
-212,609
-195,08
-180,833
-170,909
-165,552
-164,251
-166,101
-170,224
-175,947
-182,526
-188,866
-193,879
-197
-198,133
-197,564
-195,706
-192,852
-189,418
-186,079
-183,413
-181,722
-181,079
-181,286
-182,053
-183,17
-184,357
-185,253
-185,598
-185,211
-184,002
-182,001
-179,251
-175,774
-171,623
-166,861
-161,541
-155,723
-149,45
-142,762
-135,715
-128,369
-120,791
-113,034
-105,125
-97,089
-88,942
-80,691
-72,346
-63,904
-55,353
-46,679
-37,862
-28,892
-19,776
-10,518
-1,12
8,404
18,046
27,768
37,497
47,171
56,735
66,142
75,359
84,34
93,019
101,343
109,264
116,761
123,85
130,547
136,869
142,86
148,578
154,121
159,64
165,256
171,065
177,156
183,605
190,51
198,003
206,189
215,141
224,91
235,503
246,923
259,17
272,188
285,884
300,117
314,693
329,441
344,214
358,842
373,145
386,903
399,843
411,718
422,31
431,397
438,779
444,258
447,641
448,798
447,647
444,136
438,244
429,945
419,217
406,086
390,628
372,964
353,282
331,783
308,67
284,194
258,625
232,242
205,335
178,16
150,954
123,971
97,479
71,747
47,041
23,589
1,571
-18,856
-37,583
-54,54
-69,686
-83,038
-94,649
-104,583
-112,916
-119,729
-125,12
-129,229
-132,238
-134,338
-135,737
-136,636
-137,222
-137,694
-138,231
-138,981
-140,064
-141,568
-143,55
-146,07
-149,185
-152,93
-157,317
-162,33
-167,919
-174,026
-180,571
-187,466
-194,613
-201,898
-209,211
-216,458
-223,55
-230,421
-237,016
-243,284
-249,174
-254,654
-259,708
-264,327
-268,521
-272,301
-275,689
-278,714
-281,412
-283,823
-285,978
-287,915
-289,68
-291,309
-292,837
-294,293
-295,7
-297,076
-298,433
-299,779
-301,116
-302,442
-303,746
-305,026
-306,281
-307,522
-308,771
-310,032
-311,285
-312,509
-313,67
-314,734
-315,664
-316,417
-316,934
-317,168
-317,082
-316,642
-315,831
-314,617
-312,956
-310,793
-308,059
-304,707
-300,72
-296,085
-290,808
-284,911
-278,424
-271,4
-263,917
-256,039
-247,819
-239,302
-230,514
-221,499
-212,31
-203,007
-193,659
-184,324
-175,042
-165,851
-156,781
-147,845
-139,048
-130,377
-121,792
-113,272
-104,807
-96,393
-88,04
-79,752
-71,524
-63,358
-55,251
-47,202
-39,216
-31,293
-23,432
-15,642
-7,935
-0,331
7,139
14,453
21,6
28,568
35,354
41,956
48,37
54,597
60,643
66,511
72,204
77,724
83,071
88,248
93,26
98,113
102,817
107,379
111,804
116,101
120,273
124,327
128,268
132,098
135,819
139,434
142,946
146,359
149,676
152,901
156,037
159,085
162,049
164,932
167,734
170,458
173,103
175,67
178,159
180,572
182,907
185,166
187,348
189,453
191,482
193,435
195,311
197,111
198,835
200,483
202,055
203,55
204,97
206,313
207,581
208,772
209,889
210,931
211,9
212,797
213,623
214,379
215,069
215,694
216,257
216,76
217,207
217,6
217,944
218,241
218,495
218,71
218,89
219,037
219,156
219,25
219,322
219,375
219,412
219,437
219,452
219,459
219,461
219,461
219,462
219,464
219,472
219,486
219,508
219,539
219,581
219,634
219,698
219,772
219,855
219,947
220,045
220,147
220,249
220,35
220,446
220,532
220,605
220,661
220,695
220,702
220,678
220,615
220,509
220,353
220,142
219,868
219,526
219,109
218,613
218,032
217,362
216,6
215,741
214,779
213,711
212,531
211,237
209,824
208,292
206,638
204,862
202,968
200,959
198,84
196,612
194,273
191,821
189,256
186,583
183,805
180,932
177,977
174,958
171,9
168,829
165,771
162,749
159,778
156,875
154,062
151,364
148,814
146,442
144,272
142,322
140,606
139,125
137,859
136,774
135,813
134,918
134,046
133,148
132,167
131,043
129,707
128,083
126,117
123,726
120,798
117,317
113,338
109,008
104,604
100,376
96,483
93,178
90,787
89,394
88,92
89,053
89,162
88,875
88,169
86,878
84,759
81,961
78,909
76,531
76,359
79,443
86,299
97,745
114,704
137,692
166,914
201,637
240,111
280,95
322,888
363,765
400,923
431,57
452,807
462,754
460,543
445,07
415,766
373,58
320,56
259,766
195,104
130,042
67,739
11,894
-34,334
-69,222
-92,232
-104,097
-106,567
-101,469
-90,849
-77,5
-64,093
-52,38
-43,329
-37,08
-33,16
-31,076
-30,225
-29,545
-27,944
-24,837
-20,05
-13,813
-6,648
1,028
8,857
16,353
23,036
28,612
32,928
36,006
37,999
39,034
39,23
38,732
37,681
36,232
34,534
32,724
30,936
29,269
27,791
26,559
25,613
24,987
24,719
24,821
25,276
26,064
27,152
28,507
30,104
31,89
33,794
35,736
37,628
39,409
41,047
42,513
43,79
44,861
45,71
46,336
46,757
46,985
47,034
46,915
46,638
46,224
45,706
45,121
44,508
43,897
43,31
42,766
42,285
41,882
41,571
41,361
41,255
41,258
41,379
41,625
42,005
42,524
43,184
43,983
44,92
45,995
47,206
48,547
50,016
51,606
53,313
55,131
57,054
59,075
61,183
63,367
65,614
67,913
70,249
72,608
74,974
77,332
79,667
81,964
84,207
86,382
88,474
90,468
92,35
94,106
95,723
97,188
98,49
99,616
100,556
101,302
101,844
102,177
102,293
102,189
101,859
101,303
100,518
99,504
98,262
96,793
95,102
93,192
91,068
88,736
86,204
83,48
80,572
77,491
74,245
70,847
67,307
63,636
59,847
55,952
51,964
47,895
43,758
39,567
35,333
31,07
26,791
22,508
18,232
13,975
9,749
5,563
1,429
-2,645
-6,65
-10,577
-14,418
-18,168
-21,818
-25,364
-28,801
-32,123
-35,328
-38,412
-41,373
-44,209
-46,92
-49,504
-51,962
-54,294
-56,503
-58,589
-60,556
-62,405
-64,14
-65,765
-67,283
-68,699
-70,017
-71,241
-72,376
-73,427
-74,398
-75,295
-76,121
-76,882
-77,581
-78,222
-78,811
-79,351
-79,847
-80,301
-80,717
-81,099
-81,451
-81,775
-82,073
-82,349
-82,605
-82,841
-83,061
-83,266
-83,456
-83,633
-83,798
-83,95
-84,092
-84,222
-84,341
-84,45
-84,547
-84,633
-84,708
-84,772
-84,825
-84,867
-84,898
-84,919
-84,93
-84,933
-84,928
-84,915
-84,897
-84,873
-84,846
-84,816
-84,785
-84,755
-84,727
-84,703
-84,686
-84,677
-84,679
-84,693
-84,722
-84,769
-84,836
-84,924
-85,038
-85,178
-85,347
-85,547
-85,781
-86,051
-86,358
-86,703
-87,089
-87,516
-87,985
-88,496
-89,05
-89,646
-90,284
-90,964
-91,684
-92,443
-93,241
-94,075
-94,944
-95,845
-96,777
-97,736
-98,721
-99,727
-100,753
-101,795
-102,849
-103,914
-104,985
-106,059
-107,132
-108,202
-109,264
-110,316
-111,354
-112,375
-113,376
-114,354
-115,307
-116,231
-117,126
-117,989
-118,818
-119,611
-120,368
-121,088
-121,769
-122,411
-123,014
-123,577
-124,1
-124,584
-125,029
-125,435
-125,803
-126,133
-126,427
-126,686
-126,91
-127,101
-127,259
-127,387
-127,484
-127,554
-127,596
-127,613
-127,605
-127,574
-127,522
-127,448
-127,355
-127,243
-127,112
-126,965
-126,801
-126,62
-126,424
-126,212
-125,985
-125,742
-125,486
-125,214
-124,929
-124,63
-124,317
-123,992
-123,654
-123,304
-122,942
-122,569
-122,185
-121,791
-121,387
-120,975
-120,554
-120,127
-119,694
-119,256
-118,815
-118,372
-117,928
-117,485
-117,045
-116,609
-116,181
-115,762
-115,355
-114,963
-114,588
-114,233
-113,903
-113,599
-113,324
-113,081
-112,873
-112,703
-112,574
-112,488
-112,448
-112,457
-112,519
-112,637
-112,816
-113,058
-113,368
-113,747
-114,201
-114,73
-115,336
-116,02
-116,78
-117,616
-118,529
-119,519
-120,584
-121,724
-122,937
-124,221
-125,573
-126,989
-128,462
-129,984
-131,547
-133,147
-134,783
-136,454
-138,155
-139,886
-141,639
-143,406
-145,176
-146,927
-148,633
-150,263
-151,789
-153,187
-154,436
-155,515
-156,404
-157,077
-157,505
-157,662
-157,533
-157,101
-156,356
-155,302
-153,966
-152,393
-150,656
-148,827
-146,964
-145,128
-143,387
-141,814
-140,486
-139,489
-138,883
-138,738
-139,155
-140,153
-141,677
-143,584
-145,554
-147,24
-148,365
-148,564
-147,453
-144,954
-141,138
-136,331
-131,34
-126,84
-123,292
-121,347
-121,421
-123,231
-126,163
-128,975
-129,592
-126,265
-117,374
-100,976
-75,801
-41,59
1,14
50,66
104,199
159,019
211,838
258,66
295,964
320,894
331,632
327,655
309,17
276,841
232,448
178,92
119,679
58,396
-1,9
-58,716
-109,541
-152,245
-185,352
-208,313
-221,634
-226,559
-224,271
-216,078
-203,576
-188,342
-172,173
-156,643
-142,667
-130,581
-120,485
-112,345
-106,147
-101,889
-99,086
-96,981
-94,854
-92,316
-89,313
-85,85
-81,774
-76,787
-70,873
-64,374
-57,863
-51,772
-46,245
-41,3
-36,97
-33,414
-30,713
-28,751
-27,247
-25,933
-24,69
-23,508
-22,427
-21,46
-20,598
-19,867
-19,324
-19,017
-18,947
-19,094
-19,419
-19,881
-20,469
-21,176
-21,987
-22,91
-23,944
-25,074
-26,275
-27,498
-28,677
-29,746
-30,658
-31,379
-31,894
-32,191
-32,25
-32,068
-31,636
-30,944
-29,985
-28,728
-27,139
-25,201
-22,914
-20,3
-17,403
-14,272
-10,944
-7,447
-3,805
-0,034
3,846
7,824
11,89
16,032
20,235
24,462
28,677
32,852
36,973
41,039
45,064
49,071
53,071
57,075
61,09
65,114
69,143
73,167
77,173
81,145
85,073
88,956
92,793
96,58
100,308
103,958
107,509
110,935
114,211
117,315
120,228
122,934
125,422
127,685
129,719
131,522
133,093
134,427
135,52
136,369
136,973
137,334
137,455
137,342
137
136,436
135,66
134,677
133,496
132,123
130,565
128,828
126,919
124,848
122,621
120,25
117,745
115,116
112,374
109,531
106,596
103,581
100,496
97,351
94,156
90,92
87,655
84,368
81,069
77,768
74,472
71,191
67,931
64,702
61,511
58,364
55,268
52,23
49,256
46,352
43,524
40,776
38,113
35,54
33,06
30,677
28,394
26,214
24,138
22,167
20,304
18,549
16,901
15,362
13,931
12,607
11,391
10,281
9,277
8,376
7,578
6,88
6,281
5,778
5,369
5,051
4,821
4,676
4,613
4,626
4,713
4,87
5,092
5,374
5,713
6,105
6,544
7,028
7,551
8,11
8,701
9,321
9,965
10,631
11,315
12,014
12,724
13,443
14,167
14,893
15,619
16,341
17,057
17,763
18,457
19,137
19,798
20,44
21,06
21,656
22,226
22,769
23,282
23,766
24,219
24,64
25,028
25,383
25,702
25,986
26,234
26,444
26,616
26,75
26,844
26,898
26,911
26,882
26,811
26,699
26,544
26,348
26,109
25,83
25,512
25,155
24,761
24,333
23,872
23,38
22,86
22,315
21,746
21,157
20,55
19,928
19,295
18,653
18,006
17,356
16,708
16,066
15,432
14,811
14,206
13,622
13,062
12,53
12,03
11,565
11,14
10,757
10,419
10,129
9,89
9,703
9,57
9,492
9,469
9,503
9,593
9,738
9,938
10,192
10,498
10,856
11,262
11,716
12,214
12,755
13,335
13,952
14,603
15,284
15,992
16,724
17,476
18,245
19,026
19,817
20,614
21,414
22,213
23,008
23,798
24,578
25,348
26,105
26,847
27,574
28,285
28,978
29,654
30,313
30,956
31,582
32,192
32,788
33,371
33,941
34,5
35,05
35,591
36,124
36,652
37,175
37,694
38,211
38,727
39,243
39,759
40,275
40,792
41,309
41,826
42,342
42,854
43,363
43,864
44,356
44,836
45,301
45,746
46,168
46,562
46,923
47,246
47,526
47,755
47,926
48,033
48,068
48,024
47,896
47,675
47,357
46,938
46,413
45,781
45,036
44,174
43,192
42,086
40,856
39,5
38,019
36,412
34,684
32,842
30,892
28,842
26,693
24,443
22,093
19,648
17,115
14,502
11,823
9,095
6,34
3,59
0,874
-1,782
-4,356
-6,834
-9,196
-11,415
-13,462
-15,3
-16,901
-18,248
-19,319
-20,104
-20,613
-20,868
-20,909
-20,799
-20,57
-20,262
-19,93
-19,617
-19,392
-19,333
-19,488
-19,942
-20,801
-22,078
-23,716
-25,575
-27,35
-28,76
-29,62
-29,647
-28,538
-26,27
-23,019
-19,233
-15,689
-12,962
-11,286
-10,985
-12,383
-15,238
-18,85
-21,953
-22,7
-19,639
-11,852
1,763
22,334
50,208
85,018
125,411
169,072
213,997
258,379
299,677
334,959
361,696
377,807
382,262
375
355,729
324,524
282,831
233,059
178,097
121,157
64,986
12,012
-34,779
-72,773
-100,709
-118,388
-126,517
-126,518
-119,842
-108,159
-93,919
-79,537
-66,57
-55,872
-47,625
-41,54
-37,322
-34,529
-32,225
-29,411
-25,534
-20,435
-14,32
-7,602
-0,612
6,349
12,857
18,447
22,831
25,9
27,707
28,422
28,192
27,134
25,384
23,107
20,455
17,573
14,593
11,606
8,706
5,98
3,497
1,325
-0,478
-1,884
-2,885
-3,486
-3,709
-3,578
-3,118
-2,369
-1,38
-0,21
1,078
2,422
3,764
5,059
6,269
7,365
8,32
9,123
9,77
10,266
10,62
10,842
10,943
10,936
10,837
10,667
10,448
10,206
9,966
9,752
9,581
9,468
9,424
9,459
9,581
9,794
10,099
10,493
10,98
11,563
12,246
13,036
13,932
14,929
16,022
17,202
18,459
19,781
21,149
22,537
23,92
25,28
26,602
27,875
29,084
30,209
31,23
32,132
32,906
33,555
34,081
34,488
34,789
35,009
35,188
35,379
35,626
35,957
36,398
36,967
37,69
38,592
39,683
40,951
42,372
43,908
45,513
47,143
48,732
50,185
51,391
52,226
52,582
52,373
51,509
49,902
47,453
44,08
39,741
34,429
28,168
20,995
12,96
4,133
-5,386
-15,449
-25,888
-36,53
-47,212
-57,775
-68,046
-77,834
-86,926
-95,147
-102,362
-108,477
-113,431
-117,168
-119,651
-120,875
-120,871
-119,712
-117,487
-114,286
-110,196
-105,323
-99,792
-93,76
-87,408
-80,879
-74,288
-67,726
-61,263
-54,969
-48,901
-43,091
-37,544
-32,248
-27,189
-22,355
-17,741
-13,322
-9,056
-4,888
-0,746
3,416
7,624
11,899
16,25
20,681
25,194
29,774
34,391
39,017
43,629
48,203
52,724
57,168
61,503
65,695
69,711
73,523
77,117
80,476
83,592
86,46
89,075
91,44
93,565
95,457
97,122
98,565
99,792
100,811
101,633
102,27
102,736
103,044
103,203
103,224
103,117
102,892
102,558
102,124
101,596
100,985
100,3
99,556
98,768
97,95
97,112
96,264
95,414
94,569
93,743
92,947
92,19
91,489
90,861
90,332
89,935
89,692
89,619
89,729
90,021
90,5
91,167
92,02
93,056
94,273
95,665
97,234
98,984
100,903
102,968
105,141
107,363
109,592
111,796
113,943
116,019
118,017
119,935
121,798
123,634
125,463
127,302
129,151
131,006
132,884
134,816
136,843
139,035
141,451
144,144
147,183
150,613
154,455
158,715
163,357
168,326
173,579
179,073
184,769
190,636
196,619
202,658
208,692
214,63
220,372
225,798
230,752
235,095
238,707
241,481
243,35
244,259
244,154
242,994
240,747
237,379
232,864
227,173
220,259
212,106
202,725
192,166
180,534
167,946
154,526
140,411
125,725
110,606
95,193
79,61
63,973
48,412
33,067
18,106
3,739
-9,839
-22,449
-33,939
-44,219
-53,222
-60,91
-67,274
-72,317
-76,066
-78,565
-79,845
-79,937
-78,895
-76,779
-73,701
-69,833
-65,347
-60,42
-55,227
-49,891
-44,516
-39,191
-33,972
-28,905
-24,018
-19,318
-14,823
-10,564
-6,557
-2,827
0,64
3,917
7,072
10,179
13,314
16,517
19,817
23,243
26,796
30,465
34,233
38,063
41,926
45,81
49,7
53,589
57,45
61,22
64,847
68,278
71,465
74,373
76,968
79,214
81,087
82,572
83,656
84,329
84,575
84,381
83,733
82,624
81,06
79,054
76,617
73,77
70,521
66,885
62,883
58,54
53,886
48,968
43,836
38,561
33,217
27,857
22,528
17,272
12,105
7,052
2,122
-2,701
-7,425
-12,063
-16,648
-21,206
-25,783
-30,462
-35,336
-40,53
-46,192
-52,433
-59,362
-67,066
-75,613
-85,113
-95,575
-106,884
-118,87
-131,221
-143,61
-155,827
-167,544
-178,322
-188,031
-196,688
-204,534
-212,332
-220,668
-229,862
-240,46
-252,805
-266,57
-281,135
-295,201
-306,574
-313,431
-314,136
-306,757
-290,057
-263,755
-228,271
-185,287
-137,572
-87,82
-39,217
4,392
39,693
63,955
75,283
73,07
57,431
28,93
-10,619
-58,296
-110,923
-165,07
-217,653
-266,157
-307,978
-340,993
-364,406
-378,396
-383,706
-381,662
-373,74
-361,483
-346,992
-332,156
-317,913
-304,837
-293,399
-283,871
-276,331
-270,662
-266,318
-262,857
-260,483
-259,357
-259,272
-259,816
-260,639
-261,579
-262,701
-264,003
-265,084
-265,626
-265,691
-265,618
-265,731
-266,169
-266,907
-267,892
-269,237
-271,056
-273,287
-275,713
-278,121
-280,394
-282,515
-284,526
-286,428
-288,186
-289,803
-291,319
-292,784
-294,241
-295,703
-297,152
-298,582
-299,992
-301,389
-302,791
-304,21
-305,654
-307,139
-308,691
-310,337
-312,12
-314,072
-316,204
-318,525
-321,027
-323,7
-326,535
-329,512
-332,594
-335,737
-338,877
-341,944
-344,866
-347,55
-349,882
-351,75
-353,025
-353,603
-353,41
-352,379
-350,464
-347,631
-343,856
-339,139
-333,505
-326,989
-319,639
-311,523
-302,717
-293,331
-283,499
-273,354
-263,035
-252,668
-242,354
-232,193
-222,27
-212,652
-203,396
-194,539
-186,098
-178,088
-170,526
-163,403
-156,698
-150,368
-144,344
-138,568
-132,985
-127,546
-122,207
-116,932
-111,69
-106,465
-101,264
-96,097
-90,988
-85,955
-81,012
-76,194
-71,559
-67,181
-63,159
-59,575
-56,496
-53,992
-52,131
-50,976
-50,589
-51,011
-52,261
-54,36
-57,32
-61,16
-65,913
-71,569
-78,089
-85,402
-93,406
-102,007
-111,125
-120,667
-130,535
-140,624
-150,817
-161,011
-171,12
-181,037
-190,651
-199,828
-208,411
-216,287
-223,381
-229,649
-235,086
-239,681
-243,414
-246,286
-248,309
-249,504
-249,911
-249,563
-248,481
-246,722
-244,362
-241,505
-238,292
-234,83
-231,191
-227,434
-223,583
-219,663
-215,709
-211,74
-207,765
-203,798
-199,846
-195,922
-192,052
-188,245
-184,486
-180,739
-176,94
-173,029
-168,975
-164,759
-160,379
-155,853
-151,186
-146,388
-141,472
-136,444
-131,305
-126,056
-120,676
-115,136
-109,423
-103,546
-97,538
-91,461
-85,365
-79,281
-73,23
-67,219
-61,258
-55,381
-49,62
-44,002
-38,558
-33,318
-28,326
-23,666
-19,413
-15,609
-12,261
-9,33
-6,771
-4,562
-2,691
-1,133
0,147
1,218
2,173
3,073
3,976
4,954
6,081
7,488
9,311
11,64
14,53
18,001
22,057
26,731
32,071
38,091
44,783
52,109
59,99
68,377
77,233
86,486
96,061
105,84
115,676
125,471
135,152
144,646
153,892
162,803
171,258
179,179
186,502
193,174
199,186
204,52
209,154
213,104
216,4
219,085
221,242
222,931
224,201
225,13
225,797
226,298
226,771
227,334
228,11
229,233
230,805
232,911
235,64
239,047
243,184
248,105
253,833
260,372
267,715
275,813
284,606
294,016
303,925
314,2
324,686
335,2
345,575
355,656
365,29
374,32
382,583
389,889
396,073
401,01
404,603
406,787
407,525
406,792
404,596
400,984
396,032
389,836
382,498
374,113
364,785
354,645
343,847
332,574
321,005
309,285
297,535
285,855
274,328
263,029
252,012
241,299
230,9
220,815
211,049
201,607
192,491
183,682
175,146
166,833
158,691
150,685
142,798
135,021
127,358
119,82
112,427
105,213
98,215
91,462
84,98
78,786
72,893
67,316
62,066
57,161
52,622
48,465
44,704
41,342
38,374
35,794
33,59
31,751
30,274
29,157
28,405
28,033
28,067
28,539
29,49
30,948
32,921
35,412
38,41
41,904
45,886
50,331
55,204
60,457
66,031
71,858
77,861
83,942
89,976
95,839
101,398
106,541
111,189
115,267
118,72
121,505
123,587
124,954
125,619
125,603
124,939
123,674
121,868
119,606
117,006
114,179
111,238
108,281
105,381
102,607
100,021
97,666
95,569
93,743
92,189
90,905
89,897
89,157
88,677
88,442
88,426
88,616
89,005
89,59
90,375
91,37
92,585
94,051
95,815
97,92
100,407
103,305
106,634
110,4
114,585
119,148
124,022
129,132
134,405
139,771
145,147
150,444
155,567
160,398
164,848
168,805
172,119
174,754
176,763
178,306
179,74
181,446
183,717
186,969
191,676
197,96
205,75
214,69
223,897
232,719
240,83
247,681
252,872
256,711
259,868
263,717
270,593
282,289
300,143
325,918
360,875
405,3
458,903
519,949
585,254
652,073
717,576
777,934
829,618
869,551
894,932
904,703
899,168
878,342
842,98
795,193
737,411
672,836
605,191
537,111
470,782
408,971
353,94
307,315
270,391
243,142
224,784
214,94
212,957
217,53
227,212
240,134
254,232
268,311
281,453
292,455
300,41
304,64
304,81
301,364
295,185
286,869
277,108
266,846
256,818
247,796
240,324
234,337
229,477
225,378
221,525
217,325
212,424
206,489
199,323
191,045
181,868
172,075
162,073
152,246
142,823
133,965
125,76
118,213
111,365
105,228
99,758
94,902
90,616
86,872
83,666
80,975
78,74
76,874
75,277
73,874
72,63
71,522
70,533
69,641
68,819
68,058
67,368
66,759
66,233
65,777
65,376
65,029
64,755
64,586
64,559
64,704
65,033
65,545
66,24
67,122
68,183
69,402
70,75
72,186
73,687
75,26
76,907
78,634
80,436
82,293
84,186
86,099
88,015
89,931
91,846
93,757
95,68
97,651
99,715
101,939
104,378
107,047
109,963
113,13
116,546
120,222
124,164
128,368
132,84
137,576
142,552
147,735
153,065
158,454
163,794
168,953
173,79
178,188
182,036
185,234
187,699
189,346
190,091
189,854
188,548
186,089
182,432
177,557
171,476
164,239
155,916
146,611
136,451
125,579
114,141
102,285
90,15
77,882
65,64
53,597
41,952
30,901
20,611
11,215
2,816
-4,502
-10,674
-15,657
-19,441
-22,055
-23,55
-23,992
-23,456
-22,032
-19,837
-17,028
-13,799
-10,353
-6,876
-3,538
-0,486
2,126
4,144
5,428
5,863
5,372
3,91
1,447
-2,037
-6,541
-12,037
-18,46
-25,704
-33,655
-42,21
-51,265
-60,723
-70,47
-80,375
-90,32
-100,204
-109,953
-119,52
-128,858
-137,925
-146,688
-155,136
-163,272
-171,118
-178,691
-185,991
-193,025
-199,802
-206,347
-212,704
-218,898
-224,942
-230,831
-236,548
-242,081
-247,422
-252,554
-257,449
-262,084
-266,441
-270,523
-274,361
-277,975
-281,376
-284,561
-287,513
-290,225
-292,702
-294,938
-296,929
-298,657
-300,097
-301,237
-302,073
-302,583
-302,722
-302,408
-301,525
-299,972
-297,657
-294,493
-290,407
-285,316
-279,143
-271,843
-263,39
-253,77
-242,975
-230,983
-217,764
-203,321
-187,698
-170,98
-153,29
-134,746
-115,478
-95,626
-75,342
-54,795
-34,14
-13,509
6,98
27,199
47
66,211
84,648
102,155
118,604
133,895
147,949
160,691
172,069
182,05
190,62
197,773
203,486
207,715
210,43
211,632
211,355
209,664
206,632
202,315
196,773
190,055
182,208
173,275
163,269
152,196
140,078
126,954
112,903
98,033
82,434
66,18
49,332
31,94
14,071
-4,189
-22,765
-41,567
-60,492
-79,414
-98,169
-116,582
-134,521
-151,883
-168,605
-184,659
-199,999
-214,58
-228,369
-241,336
-253,473
-264,789
-275,285
-284,974
-293,903
-302,145
-309,813
-317,038
-323,909
-330,487
-336,809
-342,887
-348,738
-354,385
-359,83
-365,07
-370,107
-374,931
-379,547
-383,96
-388,148
-392,066
-395,647
-398,802
-401,47
-403,613
-405,212
-406,27
-406,791
-406,777
-406,242
-405,207
-403,68
-401,671
-399,18
-396,193
-392,719
-388,794
-384,468
-379,823
-374,94
-369,879
-364,688
-359,405
-354,055
-348,675
-343,297
-337,942
-332,643
-327,441
-322,38
-317,527
-312,934
-308,62
-304,587
-300,804
-297,225
-293,821
-290,569
-287,449
-284,451
-281,559
-278,755
-276,037
-273,396
-270,812
-268,258
-265,689
-263,064
-260,371
-257,607
-254,792
-251,963
-249,142
-246,344
-243,592
-240,896
-238,265
-235,706
-233,214
-230,782
-228,412
-226,111
-223,894
-221,777
-219,764
-217,849
-216,022
-214,262
-212,556
-210,891
-209,25
-207,622
-205,999
-204,375
-202,752
-201,137
-199,53
-197,929
-196,33
-194,728
-193,12
-191,504
-189,876
-188,234
-186,575
-184,899
-183,206
-181,499
-179,773
-178,025
-176,251
-174,442
-172,594
-170,7
-168,749
-166,733
-164,648
-162,495
-160,281
-158,011
-155,688
-153,311
-150,877
-148,378
-145,809
-143,156
-140,397
-137,511
-134,48
-131,287
-127,929
-124,393
-120,662
-116,712
-112,51
-108,032
-103,268
-98,21
-92,87
-87,269
-81,436
-75,412
-69,257
-63,037
-56,832
-50,727
-44,797
-39,133
-33,807
-28,927
-24,659
-21,059
-18,087
-15,611
-13,332
-10,978
-8,421
-5,419
-1,636
2,947
8,181
13,638
18,394
21,812
23,673
23,634
21,526
17,806
13,19
9,031
7,563
10,46
18,876
34,224
57,362
88,333
126,82
171,327
219,17
268,151
316,085
360,01
397,307
425,664
442,878
448,115
441,517
422,9
392,653
352,269
303,652
249,456
192,792
135,994
81,185
30,892
-12,651
-47,72
-73,337
-89,701
-97,687
-98,172
-92,226
-81,213
-66,935
-51,538
-36,746
-23,644
-12,796
-4,379
1,384
4,181
4,373
2,87
0,592
-1,489
-2,83
-3,349
-2,742
-0,523
3,371
8,689
14,939
21,303
27,296
32,778
37,512
41,254
43,891
45,391
45,933
45,913
45,572
44,984
44,205
43,234
42,095
40,845
39,488
37,991
36,366
34,686
33,046
31,554
30,281
29,254
28,492
28,008
27,81
27,902
28,278
28,924
29,835
31,014
32,465
34,177
36,116
38,22
40,424
42,678
44,933
47,147
49,264
51,228
53,006
54,589
55,989
57,224
58,299
59,211
59,964
60,571
61,07
61,508
61,918
62,341
62,833
63,468
64,356
65,605
67,29
69,455
72,121
75,301
79,018
83,293
88,129
93,525
99,471
105,966
113,032
120,671
128,854
137,522
146,567
155,882
165,386
175,006
184,679
194,345
203,931
213,374
222,632
231,645
240,336
248,598
256,288
263,271
269,434
274,683
278,952
282,184
284,311
285,276
285,037
283,554
280,8
276,745
271,343
264,585
256,5
247,153
236,66
225,153
212,768
199,655
185,967
171,856
157,478
142,979
128,492
114,145
100,057
86,35
73,153
60,572
48,678
37,516
27,098
17,409
8,422
0,086
-7,669
-14,914
-21,724
-28,177
-34,343
-40,285
-46,06
-51,723
-57,33
-62,927
-68,544
-74,194
-79,877
-85,58
-91,286
-96,965
-102,581
-108,094
-113,467
-118,659
-123,624
-128,326
-132,729
-136,8
-140,508
-143,825
-146,733
-149,233
-151,333
-153,041
-154,366
-155,317
-155,9
-156,119
-155,977
-155,474
-154,625
-153,451
-151,982
-150,267
-148,358
-146,315
-144,189
-142,016
-139,826
-137,65
-135,519
-133,464
-131,529
-129,758
-128,203
-126,924
-125,966
-125,359
-125,113
-125,212
-125,628
-126,313
-127,23
-128,349
-129,648
-131,109
-132,715
-134,447
-136,283
-138,198
-140,157
-142,114
-144,034
-145,889
-147,665
-149,361
-150,991
-152,575
-154,128
-155,653
-157,142
-158,581
-159,952
-161,238
-162,424
-163,494
-164,436
-165,244
-165,903
-166,404
-166,736
-166,885
-166,845
-166,61
-166,186
-165,591
-164,866
-164,053
-163,2
-162,344
-161,508
-160,72
-159,999
-159,373
-158,877
-158,536
-158,365
-158,363
-158,512
-158,781
-159,126
-159,474
-159,726
-159,77
-159,485
-158,774
-157,568
-155,794
-153,386
-150,258
-146,307
-141,451
-135,628
-128,798
-120,943
-112,068
-102,195
-91,396
-79,794
-67,533
-54,784
-41,698
-28,41
-15,072
-1,859
11,024
23,329
34,822
45,284
54,491
62,231
68,302
72,519
74,759
74,95
73,043
69,013
62,837
54,495
44,016
31,47
16,972
0,699
-17,153
-36,373
-56,702
-77,865
-99,572
-121,532
-143,49
-165,215
-186,467
-207,006
-226,595
-245,005
-262,044
-277,554
-291,403
-303,511
-313,841
-322,389
-329,21
-334,389
-338,027
-340,241
-341,143
-340,847
-339,493
-337,238
-334,238
-330,657
-326,647
-322,351
-317,919
-313,466
-309,072
-304,784
-300,617
-296,568
-292,63
-288,783
-285,002
-281,26
-277,514
-273,717
-269,828
-265,797
-261,57
-257,094
-252,307
-247,166
-241,655
-235,772
-229,535
-222,965
-216,087
-208,932
-201,54
-193,949
-186,197
-178,319
-170,345
-162,308
-154,247
-146,2
-138,208
-130,304
-122,508
-114,835
-107,294
-99,89
-92,629
-85,507
-78,52
-71,661
-64,929
-58,322
-51,843
-45,489
-39,258
-33,145
-27,146
-21,258
-15,481
-9,812
-4,25
1,206
6,555
11,798
16,931
21,953
26,865
31,664
36,353
40,929
45,391
49,739
53,97
58,085
62,081
65,954
69,701
73,32
76,806
80,156
83,367
86,433
89,35
92,112
94,715
97,157
99,432
101,539
103,474
105,239
106,833
108,258
109,515
110,603
111,524
112,279
112,869
113,301
113,577
113,702
113,685
113,536
113,268
112,888
112,404
111,816
111,127
110,341
109,466
108,509
107,486
106,413
105,312
104,211
103,137
102,116
101,167
100,305
99,545
98,91
98,425
98,124
98,036
98,182
98,584
99,255
100,182
101,342
102,698
104,193
105,798
107,479
109,174
110,83
112,376
113,721
114,815
115,574
115,853
115,621
114,928
113,92
112,965
112,41
112,443
113,366
115,48
118,721
122,877
127,412
131,24
133,557
133,934
131,844
127,079
120,174
112,013
104,198
99,199
98,976
105,129
119,404
142,802
175,357
216,379
263,95
315,125
367,184
417,068
461,135
496,29
519,95
530,315
526,839
509,596
478,955
436,486
384,892
327,198
266,847
207,003
150,323
99,752
57,966
26,33
5,088
-6,368
-9,467
-5,747
3,126
14,715
26,52
36,906
44,961
50,461
53,752
55,205
55,301
55,03
55,507
57,371
60,854
65,813
71,818
78,527
85,654
92,756
99,342
105,1
109,874
113,662
116,597
118,762
120,196
120,975
121,188
120,926
120,285
119,343
118,16
116,792
115,286
113,694
112,068
110,459
108,915
107,467
106,128
104,917
103,864
102,989
102,307
101,816
101,491
101,307
101,235
101,254
101,348
101,495
101,668
101,84
101,98
102,069
102,102
102,068
101,954
101,753
101,46
101,083
100,64
100,148
99,623
99,082
98,54
98,018
97,538
97,124
96,801
96,587
96,498
96,547
96,745
97,1
97,619
98,304
99,15
100,153
101,311
102,619
104,072
105,661
107,378
109,211
111,147
113,176
115,284
117,458
119,685
121,951
124,242
126,544
128,844
131,128
133,38
135,586
137,729
139,793
141,763
143,623
145,36
146,958
148,404
149,688
150,797
151,721
152,453
152,983
153,306
153,415
153,307
152,978
152,427
151,654
150,659
149,445
148,014
146,371
144,522
142,472
140,229
137,8
135,196
132,424
129,496
126,422
123,214
119,885
116,446
112,91
109,291
105,602
101,857
98,068
94,249
90,412
86,57
82,735
78,919
75,134
71,388
67,694
64,06
60,496
57,008
53,606
50,295
47,082
43,972
40,969
38,077
35,301
32,641
30,101
27,681
25,383
23,207
21,151
19,215
17,398
15,698
14,112
12,636
11,269
10,006
8,843
7,776
6,801
5,914
5,11
4,383
3,73
3,146
2,626
2,165
1,759
1,403
1,094
0,827
0,597
0,402
0,237
0,099
-0,015
-0,11
-0,187
-0,251
-0,304
-0,349
-0,389
-0,425
-0,46
-0,496
-0,536
-0,579
-0,629
-0,686
-0,752
-0,828
-0,915
-1,013
-1,123
-1,247
-1,384
-1,535
-1,7
-1,881
-2,076
-2,287
-2,514
-2,756
-3,014
-3,289
-3,579
-3,884
-4,205
-4,54
-4,888
-5,25
-5,623
-6,006
-6,399
-6,799
-7,206
-7,618
-8,034
-8,451
-8,868
-9,283
-9,695
-10,102
-10,501
-10,891
-11,27
-11,635
-11,986
-12,32
-12,635
-12,929
-13,2
-13,447
-13,667
-13,859
-14,021
-14,152
-14,249
-14,312
-14,341
-14,334
-14,292
-14,213
-14,099
-13,95
-13,766
-13,549
-13,298
-13,016
-12,704
-12,363
-11,995
-11,602
-11,187
-10,751
-10,297
-9,827
-9,345
-8,852
-8,351
-7,845
-7,338
-6,831
-6,328
-5,832
-5,346
-4,873
-4,416
-3,976
-3,558
-3,163
-2,792
-2,448
-2,132
-1,846
-1,589
-1,363
-1,168
-1,005
-0,873
-0,773
-0,703
-0,663
-0,652
-0,669
-0,713
-0,781
-0,872
-0,985
-1,117
-1,266
-1,43
-1,606
-1,792
-1,985
-2,182
-2,379
-2,575
-2,766
-2,949
-3,122
-3,283
-3,429
-3,558
-3,669
-3,758
-3,825
-3,868
-3,885
-3,876
-3,838
-3,771
-3,676
-3,55
-3,394
-3,208
-2,991
-2,746
-2,47
-2,166
-1,834
-1,475
-1,09
-0,681
-0,251
0,199
0,667
1,149
1,643
2,146
2,654
3,166
3,679
4,188
4,692
5,186
5,669
6,135
6,581
7
7,387
7,739
8,049
8,312
8,524
8,682
8,781
8,821
8,8
8,714
8,561
8,336
8,038
7,665
7,214
6,685
6,078
5,395
4,641
3,821
2,938
1,993
0,981
-0,104
-1,261
-2,492
-3,794
-5,158
-6,575
-8,027
-9,489
-10,933
-12,337
-13,677
-14,94
-16,112
-17,171
-18,095
-18,854
-19,419
-19,773
-19,899
-19,788
-19,455
-18,922
-18,233
-17,452
-16,632
-15,827
-15,109
-14,539
-14,184
-14,128
-14,422
-15,144
-16,415
-18,26
-20,633
-23,408
-26,288
-28,972
-31,258
-32,83
-33,34
-32,741
-31,121
-28,83
-26,681
-25,293
-25,024
-26,376
-29,639
-34,473
-40,22
-45,611
-48,608
-47,579
-41,147
-27,671
-6,067
23,819
61,487
105,294
152,603
201,094
248,121
290,245
324,412
348,191
359,828
358,899
345,689
320,274
283,79
238,728
187,877
134,294
80,846
29,595
-17,276
-57,1
-88,344
-110,728
-124,613
-131,153
-131,638
-127,099
-119,203
-110,276
-101,909
-94,95
-89,775
-86,109
-83,656
-82,279
-81,398
-80,047
-77,671
-74,091
-69,393
-64,021
-58,344
-52,568
-47,037
-42,174
-38,226
-35,304
-33,386
-32,29
-31,863
-32,003
-32,574
-33,439
-34,477
-35,56
-36,586
-37,484
-38,199
-38,687
-38,925
-38,898
-38,607
-38,071
-37,322
-36,403
-35,354
-34,216
-33,021
-31,803
-30,597
-29,444
-28,381
-27,443
-26,654
-26,022
-25,555
-25,254
-25,111
-25,115
-25,247
-25,483
-25,806
-26,196
-26,638
-27,117
-27,616
-28,114
-28,596
-29,042
-29,438
-29,769
-30,02
-30,178
-30,232
-30,173
-29,991
-29,68
-29,233
-28,642
-27,901
-27,005
-25,949
-24,73
-23,346
-21,798
-20,086
-18,213
-16,183
-14,001
-11,675
-9,212
-6,62
-3,91
-1,091
1,823
4,821
7,89
11,014
14,179
17,37
20,571
23,765
26,935
30,065
33,136
36,133
39,039
41,837
44,511
47,045
49,426
51,638
53,669
55,507
57,14
58,559
59,754
60,718
61,445
61,928
62,166
62,154
61,891
61,377
60,613
59,602
58,347
56,851
55,122
53,166
50,991
48,605
46,02
43,245
40,293
37,176
33,907
30,499
26,968
23,328
19,594
15,78
11,903
7,977
4,018
0,04
-3,941
-7,911
-11,857
-15,764
-19,619
-23,41
-27,124
-30,751
-34,279
-37,699
-41,001
-44,177
-47,22
-50,122
-52,879
-55,485
-57,936
-60,229
-62,362
-64,334
-66,145
-67,794
-69,282
-70,613
-71,787
-72,81
-73,684
-74,413
-75,004
-75,46
-75,788
-75,993
-76,082
-76,06
-75,935
-75,713
-75,401
-75,005
-74,534
-73,993
-73,389
-72,73
-72,022
-71,271
-70,484
-69,666
-68,823
-67,961
-67,083
-66,196
-65,303
-64,409
-63,517
-62,63
-61,752
-60,886
-60,033
-59,196
-58,377
-57,577
-56,8
-56,045
-55,314
-54,61
-53,932
-53,283
-52,663
-52,074
-51,515
-50,989
-50,495
-50,034
-49,607
-49,213
-48,853
-48,527
-48,235
-47,978
-47,755
-47,567
-47,413
-47,293
-47,208
-47,156
-47,139
-47,156
-47,206
-47,289
-47,405
-47,553
-47,733
-47,943
-48,183
-48,451
-48,746
-49,065
-49,406
-49,768
-50,147
-50,54
-50,945
-51,36
-51,78
-52,203
-52,626
-53,045
-53,458
-53,862
-54,254
-54,63
-54,989
-55,328
-55,643
-55,933
-56,196
-56,429
-56,631
-56,799
-56,932
-57,029
-57,088
-57,109
-57,089
-57,03
-56,93
-56,789
-56,609
-56,39
-56,133
-55,84
-55,513
-55,154
-54,766
-54,352
-53,914
-53,456
-52,98
-52,491
-51,991
-51,483
-50,971
-50,457
-49,945
-49,438
-48,937
-48,446
-47,967
-47,501
-47,052
-46,621
-46,208
-45,817
-45,449
-45,104
-44,784
-44,49
-44,223
-43,983
-43,771
-43,587
-43,43
-43,301
-43,198
-43,12
-43,068
-43,039
-43,032
-43,048
-43,083
-43,137
-43,21
-43,303
-43,415
-43,547
-43,701
-43,878
-44,078
-44,303
-44,553
-44,828
-45,126
-45,448
-45,794
-46,166
-46,565
-46,992
-47,448
-47,934
-48,449
-48,993
-49,561
-50,149
-50,754
-51,374
-52,015
-52,681
-53,376
-54,102
-54,861
-55,652
-56,465
-57,286
-58,093
-58,862
-59,575
-60,213
-60,766
-61,222
-61,564
-61,773
-61,823
-61,688
-61,348
-60,785
-59,98
-58,936
-57,682
-56,261
-54,745
-53,199
-51,66
-50,176
-48,803
-47,6
-46,654
-46,052
-45,844
-46,121
-46,998
-48,491
-50,552
-52,985
-55,379
-57,361
-58,625
-58,801
-57,661
-55,243
-51,756
-47,848
-44,507
-42,471
-42,351
-44,639
-49,224
-55,47
-62,277
-67,66
-69,368
-65,528
-54,23
-33,985
-4,377
34,28
80,636
132,025
185,613
238,539
287,223
328,311
359,195
377,681
382,81
374,789
353,738
320,338
276,654
225,225
168,891
110,871
53,735
-0,256
-48,234
-87,767
-117,705
-137,716
-148,347
-150,871
-146,522
-136,8
-124,028
-110,532
-97,86
-86,915
-77,941
-70,722
-65,037
-60,526
-56,34
-51,505
-45,505
-38,242
-29,956
-21,112
-12,085
-3,193
5,101
12,265
17,982
22,125
24,732
25,992
26,063
25,069
23,182
20,601
17,531
14,175
10,715
7,284
3,996
0,956
-1,747
-4,017
-5,79
-7,041
-7,77
-7,995
-7,746
-7,055
-5,961
-4,523
-2,817
-0,926
1,06
3,064
5,025
6,9
8,649
10,235
11,637
12,846
13,867
14,716
15,405
15,947
16,356
16,653
16,869
17,034
17,182
17,345
17,548
17,813
18,157
18,595
19,136
19,788
20,554
21,432
22,425
23,535
24,764
26,115
27,585
29,174
30,878
32,692
34,613
36,634
38,752
40,96
43,253
45,624
48,067
50,574
53,137
55,745
58,388
61,054
63,728
66,4
69,054
71,678
74,258
76,78
79,231
81,598
83,869
86,031
88,072
89,981
91,746
93,358
94,806
96,082
97,178
98,087
98,802
99,318
99,632
99,742
99,644
99,34
98,829
98,114
97,198
96,086
94,784
93,298
91,637
89,808
87,823
85,691
83,424
81,033
78,531
75,93
73,243
70,483
67,663
64,798
61,9
58,982
56,058
53,14
50,241
47,373
44,547
41,776
39,069
36,437
33,888
31,431
29,074
26,822
24,683
22,658
20,754
18,971
17,311
15,775
14,363
13,073
11,904
10,852
9,916
9,09
8,371
7,753
7,231
6,8
6,453
6,185
5,989
5,858
5,787
5,768
5,797
5,866
5,97
6,103
6,259
6,433
6,621
6,818
7,022
7,227
7,434
7,638
7,84
8,039
8,234
8,427
8,618
8,807
8,999
9,193
9,393
9,602
9,822
10,057
10,309
10,583
10,88
11,205
11,56
11,948
12,372
12,834
13,336
13,88
14,468
15,101
15,78
16,505
17,277
18,095
18,958
19,866
20,815
21,805
22,831
23,891
24,981
26,096
27,232
28,385
29,549
30,719
31,89
33,055
34,21
35,348
36,464
37,552
38,606
39,622
40,594
41,518
42,39
43,205
43,959
44,651
45,276
45,832
46,317
46,729
47,067
47,33
47,518
47,631
47,67
47,636
47,531
47,357
47,116
46,812
46,448
46,027
45,553
45,032
44,467
43,864
43,227
42,562
41,874
41,168
40,45
39,724
38,996
38,271
37,553
36,846
36,156
35,485
34,838
34,218
33,629
33,072
32,552
32,069
31,626
31,223
30,862
30,544
30,268
30,035
29,843
29,691
29,578
29,502
29,461
29,452
29,472
29,516
29,581
29,663
29,756
29,857
29,96
30,059
30,15
30,227
30,283
30,31
30,303
30,253
30,154
29,998
29,778
29,489
29,125
28,684
28,16
27,55
26,85
26,055
25,161
24,165
23,065
21,86
20,549
19,132
17,615
16,002
14,296
12,498
10,604
8,611
6,518
4,327
2,042
-0,33
-2,778
-5,287
-7,83
-10,386
-12,931
-15,447
-17,92
-20,336
-22,672
-24,901
-26,988
-28,901
-30,619
-32,121
-33,395
-34,448
-35,297
-35,978
-36,547
-37,046
-37,517
-38,015
-38,588
-39,301
-40,235
-41,452
-43,048
-45,153
-47,801
-50,947
-54,454
-58,035
-61,395
-64,331
-66,541
-67,664
-67,641
-66,648
-65,142
-63,948
-63,699
-64,672
-67,243
-71,786
-78,048
-85,276
-92,086
-96,42
-96,636
-91,654
-80,176
-60,933
-33,482
1,864
43,656
89,381
136,867
184,165
228,558
266,934
296,52
315,021
321,421
315,746
297,767
267,526
226,283
176,347
120,701
62,633
4,702
-50,946
-101,596
-144,566
-177,973
-201
-213,874
-217,574
-212,956
-200,874
-183,022
-161,7
-139,226
-117,498
-97,882
-81,088
-67,736
-58,602
-53,793
-52,642
-54,14
-57,135
-60,49
-63,597
-66,02
-67,078
-66,458
-64,296
-60,939
-57,044
-53,377
-50,272
-47,852
-46,318
-45,686
-45,873
-46,767
-48,033
-49,263
-50,256
-50,922
-51,207
-51,138
-50,707
-49,863
-48,642
-47,122
-45,358
-43,42
-41,36
-39,196
-36,972
-34,749
-32,577
-30,502
-28,549
-26,715
-24,996
-23,395
-21,919
-20,579
-19,382
-18,321
-17,386
-16,563
-15,832
-15,178
-14,579
-14,01
-13,449
-12,876
-12,277
-11,647
-10,983
-10,281
-9,533
-8,732
-7,869
-6,939
-5,934
-4,851
-3,684
-2,428
-1,083
0,353
1,879
3,496
5,204
7,003
8,894
10,877
12,949
15,109
17,351
19,673
22,068
24,529
27,049
29,62
32,232
34,875
37,542
40,221
42,901
45,572
48,222
50,841
53,417
55,939
58,396
60,776
63,07
65,267
67,358
69,333
71,185
72,905
74,486
75,923
77,208
78,339
79,311
80,122
80,768
81,25
81,566
81,717
81,705
81,531
81,2
80,716
80,083
79,307
78,396
77,357
76,198
74,927
73,554
72,088
70,539
68,916
67,231
65,494
63,713
61,9
60,064
58,214
56,361
54,512
52,676
50,862
49,075
47,324
45,613
43,95
42,338
40,781
39,285
37,85
36,481
35,178
33,941
32,772
31,67
30,632
29,657
28,742
27,882
27,075
26,316
25,6
24,921
24,275
23,656
23,058
22,476
21,905
21,338
20,771
20,199
19,616
19,019
18,402
17,764
17,099
16,407
15,683
14,927
14,136
13,31
12,447
11,548
10,612
9,64
8,632
7,592
6,52
5,419
4,293
3,144
1,975
0,792
-0,404
-1,607
-2,814
-4,022
-5,225
-6,422
-7,608
-8,779
-9,933
-11,067
-12,179
-13,266
-14,327
-15,36
-16,366
-17,343
-18,291
-19,209
-20,099
-20,961
-21,796
-22,604
-23,386
-24,146
-24,884
-25,603
-26,306
-26,995
-27,673
-28,342
-29,007
-29,669
-30,332
-30,997
-31,668
-32,347
-33,036
-33,738
-34,454
-35,186
-35,936
-36,702
-37,488
-38,291
-39,113
-39,952
-40,807
-41,677
-42,561
-43,458
-44,366
-45,283
-46,208
-47,139
-48,074
-49,012
-49,949
-50,885
-51,818
-52,745
-53,666
-54,579
-55,482
-56,377
-57,262
-58,14
-59,011
-59,876
-60,739
-61,599
-62,461
-63,327
-64,196
-65,07
-65,951
-66,841
-67,743
-68,661
-69,6
-70,56
-71,547
-72,56
-73,603
-74,675
-75,772
-76,892
-78,031
-79,191
-80,378
-81,598
-82,852
-84,143
-85,467
-86,819
-88,192
-89,571
-90,933
-92,257
-93,523
-94,715
-95,827
-96,849
-97,767
-98,558
-99,191
-99,636
-99,874
-99,887
-99,662
-99,206
-98,533
-97,678
-96,699
-95,639
-94,539
-93,449
-92,408
-91,472
-90,709
-90,178
-89,97
-90,212
-90,962
-92,199
-93,799
-95,483
-96,949
-97,945
-98,167
-97,256
-95,038
-91,637
-87,499
-83,451
-80,358
-78,774
-79,131
-81,903
-87,142
-94,228
-101,924
-108,238
-110,938
-108,371
-99,069
-81,441
-54,566
-18,45
26,025
76,709
130,801
185,791
238,797
286,272
325,008
352,222
365,778
364,796
349,05
318,566
274,452
219,144
155,692
87,734
19,049
-46,999
-107,027
-157,885
-197,41
-224,772
-240,269
-245,167
-241,316
-230,833
-216,294
-200,381
-185,352
-172,615
-162,694
-155,526
-150,679
-147,515
-145,148
-142,534
-138,754
-133,379
-126,477
-118,372
-109,517
-100,36
-91,343
-82,982
-75,771
-69,969
-65,624
-62,647
-60,864
-60,126
-60,317
-61,293
-62,874
-64,894
-67,2
-69,665
-72,203
-74,722
-77,112
-79,249
-81,022
-82,357
-83,223
-83,618
-83,549
-83,025
-82,06
-80,688
-78,96
-76,94
-74,687
-72,253
-69,684
-67,025
-64,336
-61,685
-59,129
-56,704
-54,428
-52,302
-50,328
-48,508
-46,837
-45,296
-43,86
-42,506
-41,212
-39,965
-38,747
-37,539
-36,314
-35,044
-33,705
-32,283
-30,768
-29,151
-27,428
-25,591
-23,642
-21,585
-19,426
-17,169
-14,816
-12,369
-9,832
-7,212
-4,517
-1,757
1,06
3,926
6,829
9,76
12,708
15,66
18,607
21,537
24,438
27,299
30,105
32,842
35,497
38,057
40,507
42,833
45,023
47,064
48,944
50,651
52,176
53,508
54,638
55,559
56,262
56,741
56,992
57,009
56,79
56,332
55,635
54,699
53,525
52,117
50,478
48,613
46,528
44,231
41,73
39,033
36,151
33,094
29,874
26,503
22,993
19,358
15,61
11,764
7,833
3,832
-0,226
-4,325
-8,453
-12,595
-16,737
-20,867
-24,971
-29,036
-33,051
-37,003
-40,881
-44,675
-48,375
-51,971
-55,455
-58,819
-62,056
-65,161
-68,128
-70,952
-73,631
-76,16
-78,538
-80,763
-82,835
-84,753
-86,518
-88,13
-89,591
-90,903
-92,069
-93,091
-93,973
-94,718
-95,33
-95,814
-96,173
-96,413
-96,537
-96,552
-96,461
-96,27
-95,983
-95,607
-95,145
-94,602
-93,984
-93,294
-92,536
-91,715
-90,835
-89,898
-88,909
-87,869
-86,782
-85,651
-84,478
-83,265
-82,014
-80,728
-79,407
-78,054
-76,669
-75,255
-73,812
-72,34
-70,842
-69,318
-67,769
-66,194
-64,595
-62,972
-61,325
-59,654
-57,96
-56,243
-54,502
-52,739
-50,952
-49,143
-47,312
-45,459
-43,585
-41,69
-39,775
-37,842
-35,889
-33,92
-31,934
-29,932
-27,916
-25,887
-23,846
-21,794
-19,732
-17,662
-15,585
-13,502
-11,415
-9,326
-7,235
-5,146
-3,058
-0,975
1,102
3,172
5,231
7,278
9,311
11,329
13,328
15,308
17,266
19,201
21,111
22,995
24,85
26,677
28,472
30,235
31,966
33,663
35,325
36,951
38,542
40,096
41,614
43,094
44,536
45,941
47,309
48,639
49,931
51,187
52,407
53,59
54,739
55,853
56,933
57,981
58,997
59,983
60,938
61,864
62,762
63,633
64,477
65,296
66,089
66,857
67,602
68,322
69,018
69,69
70,338
70,961
71,56
72,133
72,68
73,2
73,693
74,157
74,592
74,997
75,37
75,71
76,016
76,287
76,52
76,715
76,87
76,984
77,055
77,083
77,066
77,002
76,892
76,733
76,525
76,268
75,961
75,603
75,194
74,735
74,226
73,667
73,06
72,405
71,703
70,956
70,166
69,335
68,463
67,555
66,611
65,635
64,629
63,597
62,541
61,464
60,371
59,264
58,148
57,025
55,899
54,773
53,653
52,541
51,44
50,356
49,292
48,251
47,237
46,255
45,307
44,396
43,527
42,702
41,923
41,194
40,517
39,894
39,328
38,821
38,373
37,988
37,666
37,409
37,217
37,091
37,032
37,038
37,111
37,249
37,452
37,719
38,048
38,438
38,888
39,394
39,955
40,567
41,227
41,931
42,677
43,459
44,273
45,115
45,979
46,862
47,757
48,659
49,563
50,462
51,351
52,223
53,072
53,89
54,67
55,405
56,086
56,706
57,259
57,737
58,133
58,443
58,662
58,787
58,813
58,738
58,556
58,265
57,862
57,345
56,714
55,967
55,108
54,142
53,074
51,911
50,655
49,306
47,864
46,334
44,719
43,025
41,261
39,443
37,591
35,736
33,905
32,124
30,414
28,789
27,267
25,869
24,618
23,548
22,677
22,021
21,601
21,434
21,517
21,828
22,317
22,915
23,571
24,251
24,918
25,528
26,022
26,329
26,38
26,135
25,543
24,503
22,995
21,079
18,924
16,898
15,375
14,613
14,92
16,613
19,687
23,962
28,986
33,787
37,581
39,902
40,136
37,943
33,719
28,209
22,783
19,691
20,792
27,643
42,082
65,324
97,552
138,272
185,85
237,409
290,054
340,545
384,969
419,769
442,003
449,441
440,991
416,807
377,908
326,504
265,946
200,091
133,126
69,056
11,589
-36,181
-72,392
-96,498
-109,039
-111,472
-105,942
-94,794
-80,796
-66,742
-54,425
-44,782
-38,121
-34,1
-32,087
-31,384
-30,899
-29,412
-26,317
-21,44
-14,934
-7,3
0,996
9,551
17,819
25,238
31,478
36,358
39,86
42,12
43,245
43,334
42,534
40,992
38,858
36,281
33,396
30,331
27,214
24,164
21,283
18,653
16,346
14,424
12,926
11,865
11,244
11,044
11,245
11,821
12,729
13,912
15,304
16,832
18,428
20,028
21,581
23,048
24,4
25,611
26,667
27,567
28,314
28,917
29,39
29,741
29,988
30,152
30,258
30,333
30,407
30,508
30,66
30,882
31,189
31,592
32,099
32,716
33,444
34,283
35,233
36,294
37,468
38,753
40,149
41,651
43,254
44,954
46,743
48,615
50,564
52,584
54,667
56,806
58,993
61,222
63,483
65,766
68,06
70,352
72,63
74,88
77,089
79,244
81,331
83,338
85,251
87,059
88,75
90,313
91,737
93,011
94,127
95,076
95,848
96,438
96,839
97,046
97,053
96,857
96,457
95,849
95,034
94,012
92,783
91,35
89,716
87,884
85,861
83,652
81,264
78,707
75,988
73,118
70,108
66,968
63,711
60,348
56,891
53,354
49,747
46,085
42,378
38,64
34,883
31,117
27,354
23,605
19,881
16,191
12,545
8,951
5,418
1,955
-1,433
-4,737
-7,951
-11,071
-14,091
-17,006
-19,814
-22,512
-25,097
-27,57
-29,929
-32,176
-34,311
-36,336
-38,253
-40,066
-41,778
-43,392
-44,913
-46,345
-47,691
-48,958
-50,148
-51,267
-52,318
-53,307
-54,236
-55,109
-55,931
-56,705
-57,434
-58,123
-58,773
-59,388
-59,972
-60,527
-61,056
-61,562
-62,047
-62,513
-62,961
-63,395
-63,814
-64,22
-64,614
-64,995
-65,365
-65,723
-66,068
-66,401
-66,721
-67,026
-67,318
-67,594
-67,855
-68,101
-68,33
-68,543
-68,739
-68,92
-69,085
-69,234
-69,368
-69,487
-69,59
-69,679
-69,754
-69,814
-69,86
-69,891
-69,907
-69,908
-69,894
-69,865
-69,82
-69,76
-69,683
-69,59
-69,481
-69,356
-69,215
-69,058
-68,885
-68,697
-68,493
-68,274
-68,04
-67,791
-67,528
-67,249
-66,955
-66,646
-66,321
-65,982
-65,626
-65,256
-64,87
-64,468
-64,052
-63,621
-63,176
-62,718
-62,246
-61,764
-61,27
-60,766
-60,254
-59,735
-59,21
-58,679
-58,145
-57,607
-57,068
-56,527
-55,985
-55,444
-54,904
-54,364
-53,826
-53,289
-52,754
-52,221
-51,688
-51,157
-50,627
-50,097
-49,567
-49,036
-48,504
-47,969
-47,432
-46,89
-46,344
-45,792
-45,234
-44,667
-44,091
-43,506
-42,91
-42,302
-41,681
-41,048
-40,401
-39,741
-39,068
-38,382
-37,683
-36,973
-36,253
-35,524
-34,788
-34,048
-33,305
-32,562
-31,822
-31,089
-30,365
-29,655
-28,961
-28,287
-27,638
-27,016
-26,426
-25,871
-25,354
-24,88
-24,452
-24,072
-23,744
-23,47
-23,254
-23,096
-22,999
-22,964
-22,993
-23,085
-23,24
-23,46
-23,742
-24,086
-24,49
-24,952
-25,468
-26,036
-26,652
-27,311
-28,009
-28,74
-29,5
-30,282
-31,082
-31,892
-32,708
-33,523
-34,33
-35,125
-35,9
-36,649
-37,367
-38,047
-38,685
-39,276
-39,814
-40,296
-40,718
-41,076
-41,366
-41,588
-41,737
-41,813
-41,813
-41,738
-41,587
-41,361
-41,061
-40,689
-40,247
-39,739
-39,167
-38,537
-37,853
-37,119
-36,34
-35,522
-34,671
-33,795
-32,898
-31,988
-31,072
-30,16
-29,259
-28,377
-27,524
-26,708
-25,936
-25,218
-24,559
-23,966
-23,443
-22,995
-22,626
-22,341
-22,146
-22,044
-22,04
-22,136
-22,336
-22,641
-23,049
-23,557
-24,161
-24,855
-25,637
-26,512
-27,48
-28,541
-29,696
-30,94
-32,265
-33,659
-35,1
-36,557
-37,999
-39,397
-40,725
-41,967
-43,103
-44,115
-44,98
-45,669
-46,158
-46,427
-46,457
-46,232
-45,756
-45,059
-44,188
-43,224
-42,239
-41,288
-40,431
-39,731
-39,252
-39,07
-39,26
-39,861
-40,944
-42,613
-44,89
-47,727
-50,943
-54,152
-56,964
-59,065
-60,083
-59,674
-57,762
-54,437
-50,193
-46,02
-42,774
-41,09
-41,539
-44,318
-49,042
-54,93
-60,38
-62,993
-60,572
-51,112
-32,905
-5,072
32,361
78,537
131,341
187,56
243,717
295,93
340,34
373,72
393,552
398,235
387,305
361,354
321,755
270,996
212,319
149,208
85,179
23,476
-33,04
-81,971
-121,346
-150,228
-168,729
-177,585
-178,04
-171,679
-160,144
-145,092
-128,538
-112,1
-96,801
-83,5
-72,569
-63,96
-57,778
-54,115
-52,437
-52,227
-53,003
-53,967
-54,748
-55,295
-55,269
-54,302
-52,413
-49,663
-46,332
-43,078
-40,19
-37,705
-35,782
-34,514
-33,894
-33,914
-34,366
-34,839
-35,116
-35,114
-34,775
-34,13
-33,188
-31,925
-30,391
-28,686
-26,876
-25,012
-23,118
-21,183
-19,222
-17,274
-15,375
-13,571
-11,884
-10,323
-8,892
-7,59
-6,416
-5,363
-4,418
-3,563
-2,784
-2,071
-1,417
-0,817
-0,264
0,255
0,752
1,242
1,736
2,241
2,764
3,311
3,885
4,49
5,127
5,795
6,496
7,231
8
8,807
9,651
10,531
11,447
12,397
13,379
14,388
15,423
16,478
17,549
18,632
19,722
20,814
21,904
22,985
24,054
25,103
26,128
27,123
28,082
29,001
29,874
30,696
31,463
32,172
32,818
33,398
33,91
34,351
34,721
35,017
35,24
35,388
35,463
35,465
35,395
35,255
35,045
34,768
34,426
34,021
33,556
33,034
32,457
31,829
31,152
30,429
29,664
28,86
28,02
27,148
26,246
25,318
24,368
23,398
22,412
21,412
20,4
19,38
18,354
17,322
16,288
15,253
14,218
13,183
12,151
11,121
10,094
9,071
8,053
7,04
6,033
5,033
4,041
3,057
2,082
1,119
0,167
-0,773
-1,698
-2,609
-3,504
-4,382
-5,243
-6,084
-6,906
-7,706
-8,486
-9,243
-9,976
-10,686
-11,37
-12,028
-12,659
-13,262
-13,834
-14,376
-14,885
-15,36
-15,8
-16,204
-16,569
-16,895
-17,181
-17,427
-17,631
-17,794
-17,914
-17,993
-18,029
-18,024
-17,978
-17,892
-17,766
-17,601
-17,398
-17,159
-16,884
-16,574
-16,232
-15,858
-15,453
-15,02
-14,559
-14,073
-13,564
-13,033
-12,483
-11,917
-11,337
-10,745
-10,146
-9,54
-8,933
-8,326
-7,723
-7,126
-6,539
-5,964
-5,403
-4,859
-4,334
-3,829
-3,347
-2,889
-2,456
-2,049
-1,669
-1,318
-0,994
-0,699
-0,434
-0,197
0,011
0,19
0,341
0,464
0,561
0,632
0,679
0,703
0,706
0,691
0,659
0,613
0,557
0,492
0,422
0,349
0,277
0,209
0,146
0,092
0,049
0,019
0,004
0,006
0,025
0,065
0,124
0,205
0,308
0,432
0,578
0,747
0,936
1,147
1,379
1,63
1,899
2,186
2,489
2,805
3,134
3,473
3,819
4,169
4,521
4,872
5,218
5,557
5,885
6,2
6,498
6,777
7,034
7,267
7,475
7,654
7,804
7,923
8,011
8,067
8,09
8,081
8,04
7,966
7,861
7,725
7,56
7,366
7,144
6,897
6,625
6,33
6,015
5,682
5,332
4,969
4,596
4,214
3,827
3,437
3,048
2,661
2,28
1,906
1,543
1,191
0,854
0,532
0,228
-0,058
-0,325
-0,572
-0,798
-1,003
-1,187
-1,349
-1,491
-1,61
-1,709
-1,786
-1,842
-1,878
-1,893
-1,887
-1,861
-1,816
-1,751
-1,666
-1,561
-1,437
-1,293
-1,129
-0,944
-0,737
-0,509
-0,257
0,018
0,318
0,644
0,997
1,379
1,791
2,234
2,71
3,222
3,77
4,357
4,983
5,649
6,358
7,108
7,902
8,738
9,618
10,54
11,505
12,51
13,555
14,637
15,754
16,902
18,078
19,278
20,496
21,727
22,965
24,205
25,439
26,661
27,863
29,038
30,179
31,276
32,323
33,31
34,228
35,066
35,817
36,469
37,014
37,444
37,75
37,924
37,961
37,858
37,611
37,215
36,668
35,965
35,106
34,091
32,921
31,598
30,128
28,517
26,776
24,917
22,951
20,885
18,725
16,474
14,138
11,727
9,253
6,733
4,185
1,635
-0,887
-3,348
-5,719
-7,972
-10,087
-12,043
-13,814
-15,368
-16,669
-17,681
-18,375
-18,727
-18,721
-18,368
-17,688
-16,715
-15,503
-14,09
-12,525
-10,878
-9,212
-7,599
-6,126
-4,85
-3,86
-3,308
-3,233
-3,586
-4,223
-4,785
-4,941
-4,5
-3,145
-0,525
3,355
8,327
13,9
19,018
22,885
25,055
24,916
22,153
17,198
10,837
4,586
0,873
1,652
8,618
23,716
48,159
82,14
125,058
175,027
229,096
284,45
337,773
385,019
422,561
447,328
457,273
451,699
430,612
394,481
345,013
285,189
218,685
149,641
81,538
17,317
-39,986
-87,889
-124,784
-150,111
-164,621
-169,86
-167,067
-157,74
-143,854
-127,041
-109,017
-91,213
-74,113
-58,025
-43,598
-31,049
-20,401
-11,962
-5,5
-0,669
2,499
4,349
5,551
6,408
7,263
8,633
10,576
13,032
16,024
19,177
21,955
24,1
25,377
25,55
24,665
22,817
20,121
16,892
13,502
10,198
7,173
4,578
2,443
0,787
-0,372
-1,081
-1,402
-1,374
-1,035
-0,421
0,447
1,532
2,775
4,13
5,538
6,934
8,269
9,505
10,612
11,582
12,416
13,113
13,681
14,134
14,489
14,768
14,993
15,181
15,355
15,54
15,765
16,065
16,464
16,981
17,63
18,42
19,357
20,448
21,695
23,094
24,642
26,337
28,174
30,155
32,274
34,527
36,904
39,397
41,997
44,697
47,487
50,357
53,299
56,301
59,354
62,447
65,571
68,712
71,857
74,992
78,103
81,177
84,199
87,154
90,029
92,809
95,483
98,038
100,462
102,743
104,871
106,835
108,627
110,237
111,659
112,885
113,909
114,726
115,333
115,727
115,904
115,864
115,606
115,13
114,439
113,534
112,418
111,096
109,573
107,855
105,949
103,863
101,604
99,182
96,607
93,889
91,039
88,068
84,987
81,809
78,544
75,205
71,804
68,353
64,865
61,349
57,819
54,285
50,758
47,249
43,767
40,324
36,928
33,588
30,312
27,109
23,986
20,949
18,005
15,158
12,413
9,774
7,243
4,824
2,516
0,322
-1,76
-3,73
-5,589
-7,341
-8,988
-10,533
-11,981
-13,336
-14,602
-15,785
-16,889
-17,92
-18,884
-19,786
-20,631
-21,426
-22,174
-22,883
-23,556
-24,201
-24,82
-25,421
-26,007
-26,583
-27,153
-27,722
-28,293
-28,87
-29,454
-30,05
-30,658
-31,28
-31,917
-32,57
-33,238
-33,922
-34,62
-35,332
-36,055
-36,788
-37,53
-38,277
-39,029
-39,783
-40,537
-41,289
-42,038
-42,781
-43,517
-44,244
-44,961
-45,667
-46,36
-47,039
-47,703
-48,35
-48,98
-49,591
-50,183
-50,755
-51,308
-51,84
-52,352
-52,844
-53,318
-53,773
-54,212
-54,636
-55,047
-55,446
-55,835
-56,217
-56,594
-56,968
-57,341
-57,714
-58,091
-58,471
-58,858
-59,25
-59,651
-60,059
-60,477
-60,903
-61,339
-61,784
-62,24
-62,706
-63,182
-63,668
-64,165
-64,671
-65,187
-65,712
-66,245
-66,786
-67,334
-67,887
-68,444
-69,004
-69,564
-70,124
-70,681
-71,234
-71,78
-72,318
-72,846
-73,363
-73,866
-74,355
-74,829
-75,287
-75,729
-76,155
-76,564
-76,957
-77,334
-77,694
-78,039
-78,369
-78,683
-78,984
-79,27
-79,544
-79,806
-80,057
-80,298
-80,531
-80,756
-80,976
-81,191
-81,404
-81,616
-81,83
-82,047
-82,27
-82,5
-82,74
-82,992
-83,257
-83,536
-83,832
-84,145
-84,475
-84,825
-85,193
-85,581
-85,987
-86,413
-86,858
-87,321
-87,801
-88,299
-88,813
-89,343
-89,886
-90,442
-91,008
-91,584
-92,168
-92,756
-93,348
-93,94
-94,53
-95,115
-95,693
-96,261
-96,815
-97,354
-97,872
-98,369
-98,841
-99,286
-99,702
-100,086
-100,436
-100,752
-101,032
-101,275
-101,479
-101,645
-101,773
-101,86
-101,909
-101,918
-101,888
-101,819
-101,714
-101,572
-101,397
-101,189
-100,951
-100,684
-100,392
-100,078
-99,744
-99,393
-99,028
-98,653
-98,273
-97,89
-97,508
-97,131
-96,764
-96,409
-96,071
-95,753
-95,457
-95,188
-94,947
-94,738
-94,564
-94,428
-94,332
-94,279
-94,273
-94,318
-94,416
-94,571
-94,785
-95,061
-95,4
-95,805
-96,274
-96,808
-97,405
-98,064
-98,785
-99,566
-100,407
-101,307
-102,264
-103,274
-104,336
-105,444
-106,591
-107,769
-108,971
-110,193
-111,437
-112,701
-113,983
-115,281
-116,591
-117,906
-119,213
-120,495
-121,726
-122,883
-123,943
-124,888
-125,708
-126,39
-126,918
-127,275
-127,437
-127,386
-127,108
-126,59
-125,821
-124,806
-123,571
-122,161
-120,643
-119,074
-117,492
-115,942
-114,476
-113,149
-112,027
-111,185
-110,669
-110,543
-110,917
-111,811
-113,169
-114,835
-116,456
-117,669
-118,214
-117,75
-115,933
-112,745
-108,357
-103,218
-98,304
-94,452
-92,212
-92,285
-95,084
-100,209
-106,855
-113,592
-118,051
-118,098
-111,885
-97,273
-72,836
-38,538
4,818
55,373
109,915
165,062
217,199
261,935
295,385
315,138
319,772
308,867
283,392
244,952
195,838
139,75
80,745
21,987
-33,81
-84,192
-127,593
-162,789
-188,821
-206,134
-215,943
-219,016
-216,334
-209,157
-198,257
-184,755
-170,259
-155,557
-141,123
-127,861
-116,207
-106,414
-99,185
-94,589
-92,023
-91,185
-91,544
-92,176
-92,647
-92,536
-91,084
-88,066
-83,657
-77,99
-71,578
-65,131
-58,967
-53,375
-48,735
-45,123
-42,512
-40,852
-39,844
-39,141
-38,588
-38,082
-37,544
-36,98
-36,355
-35,613
-34,776
-33,875
-32,904
-31,841
-30,644
-29,27
-27,716
-26,005
-24,165
-22,22
-20,181
-18,055
-15,855
-13,6
-11,316
-9,036
-6,777
-4,556
-2,392
-0,306
1,684
3,568
5,35
7,043
8,663
10,224
11,739
13,219
14,68
16,139
17,615
19,13
20,702
22,346
24,076
25,904
27,84
29,895
32,069
34,361
36,77
39,294
41,931
44,678
47,533
50,489
53,539
56,677
59,894
63,183
66,535
69,941
73,393
76,879
80,39
83,917
87,449
90,974
94,48
97,953
101,381
104,75
108,046
111,257
114,369
117,368
120,244
122,983
125,576
128,012
130,281
132,375
134,285
136,005
137,528
138,85
139,966
140,873
141,568
142,051
142,32
142,377
142,223
141,86
141,292
140,523
139,559
138,405
137,07
135,561
133,887
132,057
130,082
127,973
125,74
123,395
120,951
118,421
115,816
113,149
110,433
107,679
104,901
102,109
99,316
96,532
93,769
91,037
88,346
85,706
83,126
80,613
78,177
75,823
73,559
71,39
69,322
67,358
65,502
63,758
62,128
60,614
59,216
57,935
56,77
55,721
54,785
53,962
53,247
52,638
52,132
51,724
51,411
51,189
51,054
51
51,023
51,119
51,283
51,51
51,795
52,133
52,519
52,95
53,42
53,925
54,46
55,022
55,606
56,208
56,826
57,454
58,089
58,729
59,37
60,009
60,643
61,271
61,889
62,496
63,09
63,669
64,23
64,773
65,296
65,797
66,274
66,725
67,151
67,548
67,916
68,253
68,559
68,832
69,071
69,276
69,445
69,579
69,676
69,736
69,759
69,744
69,693
69,605
69,481
69,322
69,127
68,899
68,637
68,344
68,02
67,667
67,286
66,879
66,448
65,995
65,523
65,034
64,53
64,015
63,491
62,962
62,43
61,898
61,369
60,847
60,334
59,833
59,346
58,876
58,426
57,998
57,592
57,212
56,857
56,529
56,229
55,957
55,714
55,498
55,31
55,15
55,016
54,907
54,822
54,758
54,715
54,69
54,679
54,681
54,692
54,708
54,725
54,742
54,752
54,754
54,742
54,712
54,662
54,587
54,484
54,35
54,181
53,975
53,73
53,444
53,116
52,743
52,326
51,863
51,355
50,803
50,206
49,566
48,885
48,163
47,403
46,608
45,78
44,923
44,04
43,135
42,212
41,276
40,332
39,385
38,44
37,502
36,577
35,671
34,788
33,934
33,113
32,33
31,591
30,898
30,255
29,666
29,134
28,66
28,247
27,897
27,61
27,387
27,228
27,133
27,102
27,132
27,223
27,373
27,58
27,84
28,152
28,511
28,913
29,353
29,828
30,33
30,856
31,398
31,951
32,508
33,064
33,611
34,144
34,657
35,143
35,597
36,012
36,384
36,705
36,971
37,174
37,31
37,374
37,361
37,267
37,088
36,824
36,472
36,032
35,503
34,883
34,173
33,371
32,479
31,499
30,433
29,285
28,06
26,768
25,418
24,017
22,57
21,077
19,54
17,962
16,348
14,705
13,043
11,374
9,716
8,094
6,531
5,049
3,667
2,394
1,243
0,236
-0,605
-1,247
-1,663
-1,836
-1,749
-1,389
-0,765
0,104
1,182
2,413
3,752
5,153
6,558
7,916
9,162
10,214
11,006
11,444
11,398
10,826
9,763
8,32
6,751
5,313
4,182
3,647
4,067
5,52
7,876
10,734
13,344
15,141
15,889
15,201
12,648
8,361
2,934
-2,405
-5,733
-5,541
-0,829
9,702
27,406
52,926
86,235
126,124
170,244
216,584
263,289
307,66
346,545
376,947
396,201
402,978
397,067
378,054
345,937
301,995
248,572
188,89
126,635
64,764
5,818
-47,254
-91,885
-126,467
-150,471
-164,546
-170,082
-168,319
-160,535
-148,57
-134,257
-119,038
-103,834
-89,026
-74,682
-61,055
-48,596
-37,354
-27,264
-18,517
-11,362
-6,004
-2,623
-1,009
-0,517
-0,793
-1,591
-2,44
-3,02
-3,138
-2,632
-1,722
-0,955
-0,61
-0,832
-1,805
-3,504
-5,872
-8,877
-12,258
-15,621
-18,711
-21,357
-23,457
-25,042
-26,13
-26,71
-26,838
-26,586
-26,018
-25,205
-24,186
-22,976
-21,604
-20,107
-18,539
-16,97
-15,457
-14,035
-12,721
-11,518
-10,427
-9,452
-8,586
-7,815
-7,114
-6,463
-5,844
-5,248
-4,66
-4,062
-3,426
-2,719
-1,918
-1,006
0,029
1,195
2,499
3,95
5,549
7,291
9,175
11,197
13,357
15,656
18,092
20,661
23,356
26,169
29,093
32,122
35,247
38,46
41,75
45,109
48,527
51,994
55,5
59,032
62,577
66,122
69,651
73,151
76,605
79,998
83,313
86,536
89,652
92,644
95,5
98,204
100,744
103,106
105,278
107,249
109,008
110,545
111,852
112,921
113,745
114,32
114,641
114,704
114,508
114,053
113,338
112,365
111,137
109,658
107,933
105,968
103,771
101,349
98,713
95,872
92,839
89,625
86,243
82,708
79,033
75,234
71,325
67,321
63,237
59,09
54,895
50,667
46,42
42,171
37,933
33,722
29,55
25,431
21,377
17,4
13,511
9,721
6,04
2,476
-0,963
-4,268
-7,434
-10,454
-13,325
-16,041
-18,601
-21,003
-23,245
-25,327
-27,251
-29,017
-30,628
-32,088
-33,4
-34,567
-35,596
-36,49
-37,256
-37,9
-38,427
-38,845
-39,16
-39,378
-39,507
-39,552
-39,522
-39,422
-39,259
-39,041
-38,773
-38,463
-38,116
-37,74
-37,339
-36,921
-36,49
-36,052
-35,611
-35,173
-34,74
-34,318
-33,908
-33,514
-33,139
-32,784
-32,452
-32,143
-31,859
-31,6
-31,366
-31,159
-30,978
-30,824
-30,695
-30,591
-30,512
-30,457
-30,426
-30,417
-30,428
-30,459
-30,508
-30,573
-30,651
-30,742
-30,842
-30,949
-31,06
-31,175
-31,289
-31,402
-31,51
-31,612
-31,706
-31,791
-31,865
-31,926
-31,974
-32,007
-32,026
-32,03
-32,018
-31,99
-31,947
-31,887
-31,812
-31,722
-31,616
-31,495
-31,361
-31,214
-31,054
-30,884
-30,705
-30,519
-30,327
-30,132
-29,936
-29,741
-29,55
-29,365
-29,189
-29,023
-28,871
-28,735
-28,616
-28,516
-28,438
-28,382
-28,35
-28,342
-28,361
-28,405
-28,476
-28,573
-28,697
-28,847
-29,023
-29,225
-29,453
-29,705
-29,98
-30,279
-30,598
-30,938
-31,295
-31,669
-32,056
-32,456
-32,864
-33,28
-33,7
-34,121
-34,542
-34,96
-35,373
-35,778
-36,173
-36,556
-36,926
-37,281
-37,62
-37,941
-38,243
-38,526
-38,79
-39,033
-39,256
-39,459
-39,642
-39,806
-39,95
-40,077
-40,187
-40,28
-40,358
-40,422
-40,475
-40,518
-40,554
-40,584
-40,612
-40,64
-40,671
-40,709
-40,755
-40,813
-40,886
-40,976
-41,087
-41,221
-41,382
-41,573
-41,797
-42,06
-42,365
-42,717
-43,119
-43,577
-44,094
-44,672
-45,316
-46,025
-46,8
-47,642
-48,553
-49,532
-50,583
-51,706
-52,901
-54,169
-55,507
-56,915
-58,388
-59,919
-61,505
-63,14
-64,823
-66,557
-68,347
-70,192
-72,09
-74,038
-76,025
-78,037
-80,055
-82,05
-83,996
-85,869
-87,646
-89,312
-90,847
-92,227
-93,428
-94,421
-95,175
-95,673
-95,897
-95,838
-95,516
-94,959
-94,211
-93,339
-92,39
-91,417
-90,492
-89,676
-89,049
-88,701
-88,686
-89,088
-90,016
-91,478
-93,427
-95,733
-98,093
-100,235
-101,945
-102,893
-102,836
-101,801
-99,93
-97,64
-95,608
-94,268
-93,978
-95,209
-98,015
-101,91
-106,004
-108,816
-108,655
-104,285
-94,455
-77,773
-53,509
-21,756
16,404
58,815
103,089
147,175
188,751
225,012
253,368
271,795
279,51
276,965
264,829
243,623
214,105
177,735
136,652
93,237
49,193
5,531
-36,692
-76,179
-111,267
-140,495
-163,302
-179,783
-190,106
-194,417
-193,017
-186,456
-176,009
-163,435
-150,172
-137,314
-125,578
-115,408
-107,24
-101,547
-98,417
-97,34
-97,576
-98,299
-99,03
-99,648
-100,003
-99,797
-98,694
-96,671
-94,069
-91,469
-89,252
-87,481
-86,134
-85,215
-84,846
-85,088
-85,778
-86,583
-87,227
-87,595
-87,674
-87,514
-87,11
-86,428
-85,492
-84,371
-83,151
-81,894
-80,627
-79,346
-78,058
-76,788
-75,574
-74,459
-73,468
-72,608
-71,883
-71,288
-70,818
-70,47
-70,228
-70,074
-69,988
-69,953
-69,958
-69,991
-70,042
-70,095
-70,132
-70,134
-70,084
-69,967
-69,771
-69,485
-69,098
-68,601
-67,986
-67,249
-66,383
-65,383
-64,243
-62,958
-61,523
-59,937
-58,197
-56,303
-54,257
-52,059
-49,715
-47,228
-44,605
-41,852
-38,977
-35,989
-32,898
-29,715
-26,451
-23,119
-19,733
-16,306
-12,854
-9,391
-5,932
-2,493
0,91
4,263
7,549
10,754
13,864
16,865
19,744
22,489
25,087
27,527
29,801
31,897
33,808
35,527
37,047
38,362
39,468
40,362
41,041
41,505
41,752
41,784
41,604
41,214
40,618
39,822
38,833
37,657
36,302
34,778
33,094
31,26
29,288
27,187
24,971
22,649
20,235
17,741
15,177
12,557
9,891
7,191
4,469
1,734
-1,001
-3,727
-6,434
-9,112
-11,751
-14,342
-16,878
-19,349
-21,748
-24,069
-26,305
-28,451
-30,502
-32,454
-34,304
-36,048
-37,685
-39,213
-40,632
-41,94
-43,139
-44,229
-45,212
-46,09
-46,864
-47,537
-48,113
-48,592
-48,98
-49,278
-49,491
-49,621
-49,672
-49,648
-49,552
-49,39
-49,164
-48,881
-48,543
-48,157
-47,725
-47,254
-46,746
-46,208
-45,642
-45,054
-44,447
-43,826
-43,194
-42,555
-41,913
-41,27
-40,631
-39,998
-39,373
-38,76
-38,159
-37,575
-37,008
-36,461
-35,936
-35,435
-34,96
-34,512
-34,094
-33,705
-33,348
-33,023
-32,73
-32,47
-32,242
-32,045
-31,88
-31,746
-31,64
-31,562
-31,511
-31,483
-31,478
-31,492
-31,524
-31,57
-31,627
-31,693
-31,765
-31,839
-31,914
-31,985
-32,05
-32,105
-32,147
-32,173
-32,18
-32,163
-32,12
-32,047
-31,942
-31,801
-31,622
-31,402
-31,14
-30,832
-30,479
-30,079
-29,63
-29,132
-28,584
-27,988
-27,342
-26,649
-25,908
-25,122
-24,292
-23,42
-22,508
-21,559
-20,575
-19,558
-18,512
-17,439
-16,343
-15,226
-14,093
-12,946
-11,788
-10,624
-9,456
-8,288
-7,123
-5,964
-4,813
-3,675
-2,55
-1,442
-0,352
0,718
1,766
2,791
3,792
4,769
5,72
6,646
7,547
8,422
9,271
10,097
10,898
11,675
12,428
13,159
13,868
14,556
15,222
15,866
16,489
17,091
17,669
18,224
18,754
19,256
19,729
20,171
20,578
20,948
21,279
21,568
21,814
22,012
22,162
22,258
22,299
22,279
22,197
22,046
21,824
21,526
21,149
20,693
20,16
19,547
18,854
18,075
17,208
16,253
15,212
14,087
12,883
11,607
10,273
8,907
7,534
6,176
4,855
3,581
2,372
1,245
0,223
-0,666
-1,399
-1,964
-2,35
-2,548
-2,553
-2,37
-2,028
-1,594
-1,127
-0,687
-0,312
-0,016
0,165
0,178
-0,032
-0,533
-1,377
-2,581
-4,181
-6,239
-8,724
-11,53
-14,445
-17,087
-19,134
-20,348
-20,442
-19,2
-16,635
-12,889
-8,344
-3,668
0,668
4,307
6,756
7,892
8,114
8,134
9,134
12,582
19,645
31,549
49,761
75,044
107,261
145,508
188,04
232,818
277,696
319,864
355,941
383,003
398,961
402,733
394,033
372,716
339,431
296,131
245,757
191,633
136,831
83,798
34,921
-7,073
-40,417
-64,598
-80,053
-88,079
-90,064
-87,178
-81,083
-74,026
-67,601
-62,637
-59,402
-57,478
-56,44
-56,044
-55,683
-54,417
-51,677
-47,277
-41,312
-34,256
-26,549
-18,481
-10,459
-2,959
3,695
9,295
13,747
17,109
19,443
20,793
21,252
20,927
19,909
18,306
16,224
13,76
11,028
8,125
5,134
2,13
-0,804
-3,58
-6,121
-8,359
-10,259
-11,805
-12,985
-13,796
-14,241
-14,342
-14,136
-13,673
-12,999
-12,144
-11,139
-10,012
-8,802
-7,56
-6,325
-5,123
-3,971
-2,873
-1,835
-0,86
0,056
0,931
1,783
2,637
3,513
4,422
5,382
6,409
7,525
8,757
10,123
11,636
13,305
15,136
17,134
19,301
21,636
24,131
26,779
29,57
32,5
35,561
38,745
42,042
45,44
48,923
52,481
56,099
59,765
63,464
67,181
70,901
74,611
78,296
81,941
85,533
89,053
92,487
95,817
99,03
102,11
105,041
107,812
110,408
112,819
115,034
117,043
118,839
120,413
121,759
122,871
123,744
124,377
124,765
124,909
124,809
124,466
123,884
123,065
122,015
120,74
119,246
117,543
115,639
113,543
111,268
108,823
106,222
103,478
100,604
97,613
94,52
91,339
88,083
84,767
81,403
78,006
74,589
71,164
67,743
64,339
60,962
57,625
54,338
51,111
47,953
44,874
41,881
38,982
36,184
33,493
30,913
28,449
26,105
23,883
21,786
19,814
17,968
16,246
14,649
13,173
11,817
10,577
9,449
8,43
7,515
6,699
5,978
5,347
4,801
4,334
3,941
3,617
3,355
3,151
2,999
2,892
2,826
2,794
2,792
2,813
2,854
2,91
2,975
3,047
3,121
3,194
3,263
3,326
3,38
3,425
3,458
3,479
3,488
3,485
3,471
3,446
3,412
3,369
3,319
3,263
3,203
3,141
3,079
3,018
2,961
2,91
2,868
2,837
2,819
2,817
2,834
2,871
2,932
3,017
3,129
3,269
3,44
3,642
3,875
4,142
4,442
4,776
5,142
5,54
5,969
6,427
6,913
7,425
7,96
8,516
9,091
9,682
10,286
10,9
11,522
12,147
12,774
13,398
14,015
14,624
15,219
15,799
16,358
16,896
17,408
17,892
18,345
18,765
19,151
19,499
19,81
20,081
20,312
20,502
20,652
20,761
20,831
20,863
20,858
20,819
20,746
20,644
20,514
20,358
20,181
19,985
19,773
19,549
19,317
19,081
18,843
18,609
18,381
18,164
17,961
17,775
17,61
17,469
17,354
17,268
17,212
17,189
17,2
17,246
17,328
17,446
17,599
17,788
18,011
18,266
18,553
18,869
19,212
19,579
19,967
20,373
20,794
21,227
21,667
22,11
22,553
22,992
23,421
23,838
24,237
24,615
24,968
25,291
25,583
25,838
26,055
26,231
26,363
26,45
26,492
26,486
26,432
26,331
26,183
25,989
25,75
25,468
25,143
24,78
24,379
23,944
23,478
22,983
22,464
21,924
21,367
20,797
20,218
19,635
19,051
18,472
17,901
17,343
16,801
16,281
15,784
15,316
14,88
14,477
14,111
13,783
13,495
13,247
13,04
12,874
12,748
12,661
12,613
12,6
12,622
12,677
12,761
12,872
13,006
13,16
13,331
13,513
13,7
13,888
14,069
14,238
14,388
14,513
14,608
14,665
14,681
14,652
14,575
14,445
14,257
14,006
13,688
13,301
12,842
12,31
11,702
11,021
10,271
9,455
8,577
7,636
6,626
5,542
4,385
3,154
1,853
0,493
-0,917
-2,357
-3,802
-5,223
-6,596
-7,897
-9,114
-10,23
-11,222
-12,063
-12,72
-13,162
-13,371
-13,332
-13,036
-12,499
-11,747
-10,825
-9,801
-8,732
-7,677
-6,709
-5,895
-5,299
-5,01
-5,086
-5,613
-6,717
-8,423
-10,678
-13,361
-16,181
-18,857
-21,209
-22,921
-23,632
-23,278
-21,921
-19,879
-17,911
-16,536
-16,012
-16,772
-19,094
-22,706
-27,055
-30,975
-32,56
-30,328
-23,021
-9,126
12,429
42,02
79,367
123,065
170,759
220,194
268,732
313,078
350,087
376,903
391,495
393,006
381,253
356,425
319,683
273,282
220,188
163,857
107,283
53,013
3,68
-38,371
-71,48
-94,994
-109,422
-116,023
-116,005
-110,772
-102,165
-92,093
-82,417
-74,355
-68,21
-63,848
-61,04
-59,37
-58,263
-57,012
-54,779
-51,15
-46,186
-40,135
-33,381
-26,293
-19,181
-12,427
-6,441
-1,438
2,531
5,499
7,585
8,859
9,362
9,191
8,458
7,278
5,76
3,995
2,067
0,071
-1,893
-3,749
-5,449
-6,975
-8,324
-9,49
-10,467
-11,234
-11,785
-12,128
-12,275
-12,25
-12,076
-11,786
-11,423
-11,041
-10,694
-10,421
-10,239
-10,149
-10,149
-10,232
-10,395
-10,638
-10,951
-11,32
-11,735
-12,181
-12,649
-13,12
-13,57
-13,965
-14,273
-14,466
-14,525
-14,439
-14,195
-13,787
-13,205
-12,446
-11,51
-10,399
-9,11
-7,643
-5,998
-4,175
-2,182
-0,027
2,279
4,725
7,301
9,995
12,794
15,686
18,657
21,693
24,784
27,913
31,067
34,228
37,378
40,502
43,581
46,598
49,535
52,375
55,103
57,701
60,155
62,451
64,575
66,516
68,26
69,797
71,119
72,216
73,081
73,707
74,091
74,228
74,116
73,754
73,143
72,284
71,179
69,834
68,251
66,439
64,403
62,152
59,695
57,041
54,202
51,189
48,015
44,691
41,232
37,651
33,962
30,18
26,317
22,389
18,41
14,393
10,353
6,302
2,254
-1,778
-5,783
-9,748
-13,663
-17,516
-21,299
-25,001
-28,614
-32,131
-35,543
-38,846
-42,032
-45,098
-48,039
-50,852
-53,534
-56,083
-58,498
-60,779
-62,926
-64,938
-66,819
-68,57
-70,193
-71,693
-73,071
-74,334
-75,484
-76,527
-77,467
-78,31
-79,061
-79,725
-80,307
-80,814
-81,249
-81,62
-81,93
-82,186
-82,392
-82,553
-82,673
-82,758
-82,81
-82,835
-82,835
-82,814
-82,776
-82,722
-82,656
-82,58
-82,495
-82,404
-82,308
-82,206
-82,1
-81,991
-81,877
-81,758
-81,634
-81,504
-81,367
-81,222
-81,067
-80,901
-80,724
-80,533
-80,327
-80,104
-79,864
-79,606
-79,327
-79,027
-78,705
-78,36
-77,992
-77,6
-77,184
-76,745
-76,281
-75,793
-75,282
-74,749
-74,194
-73,618
-73,024
-72,412
-71,786
-71,146
-70,496
-69,837
-69,174
-68,508
-67,842
-67,18
-66,524
-65,877
-65,243
-64,625
-64,024
-63,445
-62,889
-62,358
-61,857
-61,385
-60,946
-60,541
-60,171
-59,838
-59,544
-59,288
-59,071
-58,894
-58,756
-58,657
-58,597
-58,574
-58,587
-58,635
-58,716
-58,828
-58,968
-59,135
-59,325
-59,536
-59,764
-60,007
-60,261
-60,524
-60,793
-61,064
-61,335
-61,603
-61,864
-62,118
-62,36
-62,588
-62,801
-62,995
-63,169
-63,321
-63,448
-63,55
-63,626
-63,673
-63,692
-63,683
-63,643
-63,575
-63,477
-63,351
-63,197
-63,015
-62,808
-62,576
-62,32
-62,044
-61,747
-61,433
-61,102
-60,758
-60,401
-60,034
-59,658
-59,275
-58,887
-58,496
-58,104
-57,713
-57,325
-56,942
-56,565
-56,197
-55,839
-55,494
-55,163
-54,847
-54,548
-54,267
-54,005
-53,764
-53,544
-53,346
-53,171
-53,019
-52,89
-52,785
-52,702
-52,643
-52,605
-52,59
-52,597
-52,624
-52,671
-52,738
-52,822
-52,924
-53,042
-53,175
-53,32
-53,477
-53,643
-53,816
-53,993
-54,173
-54,353
-54,53
-54,701
-54,863
-55,015
-55,152
-55,273
-55,374
-55,452
-55,506
-55,531
-55,527
-55,489
-55,416
-55,306
-55,157
-54,967
-54,734
-54,457
-54,135
-53,765
-53,349
-52,884
-52,371
-51,809
-51,199
-50,542
-49,838
-49,088
-48,294
-47,458
-46,582
-45,668
-44,719
-43,738
-42,728
-41,693
-40,636
-39,56
-38,469
-37,368
-36,259
-35,147
-34,036
-32,93
-31,833
-30,75
-29,684
-28,639
-27,62
-26,63
-25,674
-24,754
-23,874
-23,037
-22,248
-21,508
-20,822
-20,193
-19,623
-19,117
-18,676
-18,304
-18,004
-17,779
-17,629
-17,557
-17,564
-17,649
-17,814
-18,059
-18,383
-18,786
-19,268
-19,828
-20,468
-21,187
-21,983
-22,856
-23,801
-24,812
-25,885
-27,018
-28,21
-29,461
-30,764
-32,117
-33,515
-34,951
-36,416
-37,894
-39,356
-40,772
-42,115
-43,362
-44,494
-45,495
-46,343
-47,015
-47,484
-47,728
-47,738
-47,504
-47,015
-46,268
-45,268
-44,052
-42,697
-41,279
-39,873
-38,535
-37,297
-36,21
-35,347
-34,778
-34,583
-34,82
-35,501
-36,666
-38,391
-40,654
-43,358
-46,252
-48,889
-50,887
-51,97
-51,825
-50,237
-47,191
-42,791
-37,517
-32,183
-27,39
-23,627
-21,302
-20,333
-20,251
-20,281
-18,957
-14,568
-5,695
9,175
31,248
60,82
97,622
140,58
187,551
236,266
284,32
328,531
365,855
393,833
410,268
414,003
404,837
382,485
347,401
301,538
247,383
187,855
126,36
65,776
8,815
-41,232
-81,758
-111,62
-130,587
-139,416
-139,654
-132,831
-120,85
-106,425
-92,051
-79,306
-69,037
-61,332
-55,825
-52,176
-49,837
-47,796
-45,045
-41,05
-35,711
-29,302
-22,262
-14,933
-7,612
-0,709
5,341
10,286
14,035
16,639
18,27
19,072
19,16
18,678
17,8
16,69
15,525
14,45
13,537
12,843
12,404
12,238
12,372
12,819
13,575
14,639
15,998
17,627
19,507
21,604
23,863
26,219
28,581
30,867
33,024
35,018
36,83
38,452
39,876
41,102
42,138
42,992
43,672
44,187
44,541
44,745
44,823
44,805
44,728
44,632
44,545
44,49
44,487
44,551
44,696
44,932
45,264
45,699
46,244
46,909
47,706
48,643
49,724
50,954
52,332
53,857
55,529
57,343
59,297
61,386
63,605
65,948
68,411
70,987
73,666
76,438
79,291
82,213
85,189
88,204
91,243
94,289
97,325
100,337
103,306
106,218
109,054
111,801
114,44
116,958
119,339
121,568
123,633
125,519
127,216
128,711
129,996
131,06
131,897
132,499
132,863
132,984
132,859
132,488
131,871
131,009
129,904
128,56
126,982
125,177
123,152
120,915
118,476
115,846
113,036
110,057
106,922
103,645
100,239
96,717
93,095
89,386
85,605
81,767
77,886
73,977
70,054
66,132
62,223
58,341
54,499
50,71
46,984
43,333
39,768
36,297
32,929
29,673
26,535
23,522
20,638
17,889
15,279
12,809
10,482
8,299
6,26
4,365
2,612
1
-0,474
-1,814
-3,022
-4,103
-5,062
-5,903
-6,632
-7,255
-7,778
-8,206
-8,547
-8,806
-8,992
-9,11
-9,167
-9,17
-9,126
-9,041
-8,921
-8,773
-8,603
-8,416
-8,218
-8,014
-7,808
-7,606
-7,411
-7,228
-7,06
-6,91
-6,781
-6,676
-6,597
-6,547
-6,527
-6,54
-6,587
-6,669
-6,788
-6,944
-7,138
-7,372
-7,644
-7,956
-8,306
-8,696
-9,123
-9,589
-10,093
-10,632
-11,208
-11,818
-12,462
-13,138
-13,847
-14,586
-15,354
-16,152
-16,977
-17,828
-18,705
-19,606
-20,53
-21,475
-22,44
-23,424
-24,425
-25,44
-26,468
-27,506
-28,554
-29,608
-30,666
-31,727
-32,788
-33,847
-34,902
-35,951
-36,992
-38,024
-39,045
-40,053
-41,047
-42,026
-42,989
-43,933
-44,859
-45,764
-46,649
-47,512
-48,352
-49,168
-49,96
-50,728
-51,47
-52,189
-52,883
-53,553
-54,2
-54,824
-55,428
-56,012
-56,579
-57,129
-57,664
-58,188
-58,701
-59,207
-59,706
-60,202
-60,697
-61,191
-61,688
-62,189
-62,695
-63,209
-63,731
-64,263
-64,807
-65,364
-65,934
-66,519
-67,12
-67,738
-68,373
-69,025
-69,695
-70,383
-71,088
-71,81
-72,548
-73,3
-74,066
-74,844
-75,633
-76,429
-77,231
-78,036
-78,843
-79,647
-80,446
-81,238
-82,019
-82,788
-83,54
-84,275
-84,988
-85,678
-86,342
-86,978
-87,583
-88,156
-88,693
-89,194
-89,656
-90,077
-90,456
-90,792
-91,084
-91,33
-91,53
-91,683
-91,79
-91,849
-91,862
-91,828
-91,748
-91,623
-91,454
-91,243
-90,992
-90,701
-90,373
-90,009
-89,612
-89,184
-88,726
-88,24
-87,73
-87,196
-86,64
-86,066
-85,474
-84,867
-84,247
-83,615
-82,973
-82,321
-81,662
-80,996
-80,325
-79,648
-78,967
-78,281
-77,591
-76,896
-76,198
-75,494
-74,785
-74,069
-73,346
-72,614
-71,871
-71,117
-70,349
-69,566
-68,766
-67,946
-67,105
-66,241
-65,352
-64,434
-63,488
-62,509
-61,497
-60,45
-59,366
-58,244
-57,082
-55,88
-54,637
-53,351
-52,024
-50,654
-49,242
-47,789
-46,296
-44,763
-43,191
-41,584
-39,941
-38,266
-36,561
-34,828
-33,07
-31,291
-29,492
-27,679
-25,854
-24,021
-22,184
-20,349
-18,518
-16,697
-14,891
-13,104
-11,34
-9,605
-7,902
-6,237
-4,614
-3,038
-1,514
-0,048
1,356
2,691
3,953
5,137
6,239
7,256
8,187
9,03
9,784
10,449
11,024
11,506
11,896
12,193
12,397
12,512
12,538
12,479
12,343
12,137
11,867
11,534
11,138
10,674
10,145
9,553
8,904
8,205
7,47
6,712
5,958
5,235
4,564
3,968
3,459
3,052
2,772
2,648
2,715
3,007
3,541
4,333
5,395
6,72
8,286
10,056
11,97
13,977
16,028
18,062
20,013
21,807
23,344
24,544
25,301
25,467
25,007
23,975
22,507
20,896
19,424
18,269
17,726
18,17
19,653
21,996
24,749
27,077
28,4
28,544
27,195
24,011
19,239
13,59
8,443
5,913
7,619
14,558
27,968
49,097
78,46
115,916
160,128
208,571
259,067
309,674
357,642
399,798
433,236
455,347
464,746
461,214
444,304
413,946
371,528
319,483
260,902
199,385
138,017
79,477
27,044
-16,366
-49,238
-71,187
-82,89
-85,862
-81,65
-71,992
-59,446
-46,598
-35,143
-26,022
-19,407
-14,915
-12,164
-10,664
-9,428
-7,347
-3,792
1,454
8,217
16,026
24,498
33,304
41,97
49,98
57
62,834
67,442
70,938
73,416
74,959
75,689
75,725
75,183
74,176
72,805
71,16
69,322
67,353
65,312
63,264
61,279
59,446
57,836
56,485
55,412
54,621
54,109
53,877
53,908
54,168
54,611
55,188
55,867
56,629
57,456
58,317
59,175
59,978
60,687
61,285
61,761
62,111
62,334
62,428
62,405
62,288
62,104
61,877
61,625
61,359
61,094
60,851
60,655
60,534
60,512
60,602
60,818
61,171
61,67
62,322
63,129
64,085
65,186
66,43
67,814
69,336
70,994
72,781
74,689
76,71
78,836
81,057
83,363
85,743
88,186
90,678
93,207
95,763
98,331
100,897
103,447
105,965
108,434
110,839
113,165
115,394
117,513
119,505
121,357
123,057
124,59
125,946
127,114
128,084
128,847
129,395
129,719
129,815
129,677
129,301
128,682
127,821
126,715
125,365
123,773
121,941
119,875
117,579
115,06
112,326
109,386
106,25
102,929
99,433
95,777
91,974
88,036
83,98
79,819
75,57
71,246
66,864
62,439
57,985
53,517
49,05
44,599
40,176
35,797
31,474
27,22
23,049
18,971
14,999
11,142
7,41
3,812
0,355
-2,953
-6,107
-9,102
-11,934
-14,6
-17,098
-19,428
-21,589
-23,582
-25,41
-27,074
-28,58
-29,93
-31,131
-32,186
-33,102
-33,886
-34,542
-35,079
-35,504
-35,823
-36,044
-36,175
-36,224
-36,198
-36,107
-35,957
-35,758
-35,515
-35,237
-34,931
-34,602
-34,259
-33,906
-33,548
-33,192
-32,841
-32,5
-32,172
-31,86
-31,566
-31,293
-31,041
-30,812
-30,606
-30,423
-30,263
-30,125
-30,009
-29,914
-29,838
-29,78
-29,739
-29,713
-29,699
-29,696
-29,7
-29,709
-29,722
-29,735
-29,746
-29,753
-29,755
-29,748
-29,732
-29,705
-29,666
-29,613
-29,547
-29,465
-29,369
-29,257
-29,131
-28,991
-28,838
-28,674
-28,498
-28,314
-28,122
-27,924
-27,722
-27,518
-27,313
-27,109
-26,91
-26,717
-26,532
-26,358
-26,198
-26,054
-25,929
-25,824
-25,743
-25,686
-25,657
-25,655
-25,684
-25,744
-25,836
-25,961
-26,119
-26,311
-26,537
-26,796
-27,088
-27,412
-27,767
-28,152
-28,566
-29,007
-29,474
-29,966
-30,482
-31,019
-31,577
-32,152
-32,745
-33,352
-33,97
-34,599
-35,236
-35,877
-36,522
-37,166
-37,808
-38,446
-39,077
-39,699
-40,31
-40,907
-41,49
-42,056
-42,603
-43,131
-43,637
-44,122
-44,584
-45,023
-45,437
-45,827
-46,19
-46,527
-46,838
-47,12
-47,373
-47,597
-47,792
-47,955
-48,088
-48,189
-48,259
-48,297
-48,304
-48,28
-48,226
-48,141
-48,028
-47,887
-47,719
-47,526
-47,308
-47,067
-46,805
-46,522
-46,221
-45,902
-45,567
-45,218
-44,855
-44,481
-44,096
-43,702
-43,302
-42,897
-42,488
-42,078
-41,668
-41,262
-40,86
-40,466
-40,08
-39,706
-39,344
-38,997
-38,665
-38,35
-38,053
-37,773
-37,512
-37,269
-37,043
-36,836
-36,645
-36,47
-36,31
-36,164
-36,03
-35,907
-35,792
-35,685
-35,583
-35,484
-35,386
-35,288
-35,186
-35,078
-34,962
-34,836
-34,696
-34,54
-34,366
-34,17
-33,95
-33,703
-33,428
-33,121
-32,782
-32,41
-32,002
-31,558
-31,078
-30,561
-30,007
-29,417
-28,79
-28,128
-27,432
-26,704
-25,944
-25,156
-24,341
-23,503
-22,643
-21,765
-20,872
-19,965
-19,05
-18,128
-17,203
-16,279
-15,36
-14,449
-13,551
-12,669
-11,808
-10,972
-10,165
-9,39
-8,651
-7,953
-7,297
-6,688
-6,129
-5,624
-5,176
-4,79
-4,471
-4,222
-4,047
-3,951
-3,937
-4,006
-4,162
-4,405
-4,733
-5,148
-5,65
-6,239
-6,918
-7,687
-8,543
-9,488
-10,517
-11,629
-12,819
-14,079
-15,401
-16,78
-18,214
-19,706
-21,26
-22,872
-24,54
-26,257
-28,011
-29,791
-31,577
-33,343
-35,062
-36,714
-38,279
-39,747
-41,106
-42,334
-43,405
-44,282
-44,934
-45,341
-45,486
-45,362
-44,981
-44,365
-43,554
-42,607
-41,568
-40,482
-39,408
-38,397
-37,51
-36,827
-36,406
-36,349
-36,8
-37,788
-39,257
-41,057
-42,877
-44,446
-45,611
-46,096
-45,55
-43,931
-41,414
-38,471
-35,965
-34,463
-34,109
-35,166
-37,931
-42,149
-47,149
-51,626
-53,555
-51,435
-44,393
-31,303
-11,017
16,949
52,506
94,43
140,361
188,327
236,567
282,479
323,024
355,295
376,655
385,77
382,402
366,063
336,595
295,124
243,866
185,871
124,643
62,914
3,012
-52,132
-99,627
-137,354
-164,318
-180,672
-187,354
-185,165
-174,924
-158,361
-137,907
-116,074
-94,869
-75,674
-59,211
-46,129
-37,257
-32,709
-31,713
-33,115
-35,678
-38,277
-40,355
-41,501
-41,005
-38,552
-34,346
-28,847
-22,843
-17,195
-12,299
-8,347
-5,625
-4,207
-4,036
-4,976
-6,633
-8,525
-10,377
-12,043
-13,431
-14,543
-15,355
-15,809
-15,917
-15,723
-15,258
-14,546
-13,594
-12,387
-10,935
-9,29
-7,52
-5,711
-3,938
-2,246
-0,658
0,805
2,125
3,284
4,267
5,072
5,71
6,186
6,504
6,667
6,681
6,566
6,355
6,083
5,786
5,49
5,214
4,973
4,784
4,659
4,61
4,643
4,759
4,964
5,265
5,67
6,186
6,818
7,564
8,425
9,398
10,482
11,676
12,976
14,379
15,88
17,477
19,166
20,941
22,798
24,727
26,72
28,767
30,857
32,978
35,118
37,265
39,404
41,525
43,612
45,656
47,642
49,558
51,393
53,135
54,773
56,295
57,691
58,953
60,07
61,035
61,84
62,479
62,946
63,238
63,35
63,28
63,027
62,59
61,969
61,167
60,185
59,028
57,701
56,209
54,56
52,76
50,818
48,744
46,546
44,236
41,823
39,319
36,735
34,082
31,371
28,615
25,826
23,014
20,191
17,37
14,561
11,774
9,021
6,312
3,655
1,061
-1,463
-3,909
-6,269
-8,538
-10,709
-12,779
-14,742
-16,596
-18,337
-19,966
-21,479
-22,877
-24,161
-25,331
-26,388
-27,335
-28,175
-28,91
-29,544
-30,081
-30,525
-30,881
-31,154
-31,348
-31,469
-31,522
-31,512
-31,446
-31,328
-31,164
-30,959
-30,718
-30,446
-30,148
-29,828
-29,49
-29,139
-28,777
-28,409
-28,036
-27,662
-27,289
-26,919
-26,554
-26,195
-25,845
-25,503
-25,171
-24,85
-24,54
-24,241
-23,954
-23,679
-23,415
-23,162
-22,92
-22,689
-22,468
-22,256
-22,053
-21,857
-21,669
-21,488
-21,313
-21,143
-20,977
-20,816
-20,659
-20,505
-20,354
-20,205
-20,058
-19,912
-19,767
-19,622
-19,477
-19,332
-19,186
-19,038
-18,888
-18,735
-18,579
-18,419
-18,253
-18,082
-17,903
-17,718
-17,524
-17,321
-17,109
-16,885
-16,651
-16,404
-16,144
-15,871
-15,583
-15,28
-14,962
-14,627
-14,276
-13,908
-13,523
-13,121
-12,702
-12,266
-11,814
-11,345
-10,861
-10,362
-9,848
-9,321
-8,782
-8,232
-7,672
-7,103
-6,528
-5,947
-5,362
-4,774
-4,186
-3,599
-3,015
-2,435
-1,861
-1,295
-0,739
-0,194
0,337
0,854
1,355
1,839
2,304
2,75
3,175
3,579
3,961
4,321
4,658
4,972
5,264
5,531
5,776
5,998
6,196
6,372
6,525
6,657
6,766
6,854
6,92
6,966
6,991
6,997
6,983
6,949
6,898
6,828
6,742
6,638
6,518
6,382
6,231
6,064
5,882
5,685
5,472
5,244
5,001
4,743
4,468
4,178
3,871
3,548
3,209
2,853
2,481
2,092
1,687
1,267
0,833
0,384
-0,078
-0,552
-1,036
-1,531
-2,035
-2,547
-3,065
-3,588
-4,115
-4,644
-5,174
-5,703
-6,229
-6,75
-7,265
-7,772
-8,269
-8,753
-9,222
-9,675
-10,109
-10,521
-10,909
-11,272
-11,606
-11,91
-12,182
-12,42
-12,625
-12,793
-12,926
-13,022
-13,08
-13,102
-13,086
-13,032
-12,941
-12,813
-12,648
-12,447
-12,21
-11,939
-11,634
-11,298
-10,93
-10,533
-10,107
-9,656
-9,179
-8,68
-8,16
-7,624
-7,072
-6,508
-5,936
-5,359
-4,781
-4,204
-3,633
-3,07
-2,518
-1,981
-1,462
-0,964
-0,49
-0,042
0,374
0,755
1,095
1,391
1,639
1,832
1,969
2,043
2,053
1,996
1,871
1,679
1,416
1,081
0,671
0,186
-0,374
-1,01
-1,722
-2,508
-3,366
-4,288
-5,268
-6,301
-7,387
-8,529
-9,729
-10,987
-12,299
-13,661
-15,065
-16,499
-17,945
-19,373
-20,755
-22,066
-23,282
-24,387
-25,364
-26,187
-26,83
-27,261
-27,455
-27,398
-27,077
-26,483
-25,635
-24,563
-23,313
-21,963
-20,569
-19,19
-17,907
-16,789
-15,912
-15,368
-15,219
-15,545
-16,467
-18
-20,092
-22,629
-25,314
-27,858
-30,062
-31,581
-32,044
-31,376
-29,614
-27,055
-24,446
-22,315
-20,965
-20,915
-22,519
-25,556
-29,513
-33,235
-34,82
-32,756
-25,684
-11,944
9,665
39,584
77,522
122,02
170,651
221,051
270,371
315,04
351,649
377,178
389,556
387,935
372,17
342,507
300,205
247,769
188,486
126,045
63,607
3,807
-50,743
-97,535
-134,57
-160,998
-177,18
-184,202
-183,194
-175,273
-161,774
-144,604
-126,083
-108,012
-91,526
-77,232
-65,393
-56,415
-50,803
-48,3
-47,984
-48,915
-50,119
-51,05
-51,636
-51,563
-50,302
-47,774
-44,256
-40,261
-36,595
-33,675
-31,494
-30,118
-29,632
-30,019
-31,215
-32,962
-34,794
-36,432
-37,787
-38,811
-39,524
-39,917
-39,93
-39,56
-38,871
-37,926
-36,78
-35,482
-34,061
-32,556
-31,028
-29,54
-28,154
-26,907
-25,815
-24,878
-24,088
-23,446
-22,954
-22,618
-22,436
-22,395
-22,479
-22,669
-22,94
-23,268
-23,626
-23,983
-24,31
-24,585
-24,791
-24,92
-24,968
-24,926
-24,785
-24,535
-24,166
-23,672
-23,045
-22,279
-21,369
-20,312
-19,107
-17,755
-16,258
-14,618
-12,838
-10,92
-8,867
-6,684
-4,376
-1,95
0,585
3,22
5,944
8,745
11,609
14,523
17,473
20,444
23,422
26,392
29,339
32,248
35,104
37,892
40,597
43,205
45,703
48,075
50,309
52,391
54,312
56,058
57,621
58,992
60,162
61,125
61,876
62,41
62,723
62,814
62,682
62,326
61,748
60,952
59,94
58,719
57,295
55,674
53,866
51,88
49,726
47,414
44,956
42,363
39,648
36,823
33,902
30,897
27,823
24,694
21,523
18,324
15,11
11,895
8,692
5,514
2,372
-0,721
-3,754
-6,717
-9,6
-12,392
-15,087
-17,675
-20,151
-22,508
-24,742
-26,848
-28,824
-30,668
-32,377
-33,952
-35,393
-36,7
-37,876
-38,923
-39,843
-40,641
-41,319
-41,884
-42,339
-42,69
-42,942
-43,101
-43,172
-43,162
-43,076
-42,919
-42,699
-42,419
-42,087
-41,708
-41,286
-40,826
-40,334
-39,812
-39,266
-38,698
-38,111
-37,508
-36,891
-36,262
-35,621
-34,97
-34,31
-33,64
-32,962
-32,274
-31,577
-30,87
-30,152
-29,422
-28,681
-27,926
-27,159
-26,378
-25,583
-24,775
-23,952
-23,116
-22,267
-21,406
-20,534
-19,651
-18,76
-17,863
-16,961
-16,058
-15,156
-14,258
-13,368
-12,488
-11,623
-10,777
-9,953
-9,155
-8,387
-7,653
-6,958
-6,305
-5,697
-5,138
-4,631
-4,179
-3,784
-3,449
-3,174
-2,962
-2,813
-2,728
-2,706
-2,747
-2,849
-3,012
-3,234
-3,511
-3,841
-4,221
-4,646
-5,112
-5,615
-6,149
-6,71
-7,292
-7,889
-8,496
-9,107
-9,717
-10,318
-10,907
-11,477
-12,023
-12,54
-13,024
-13,47
-13,874
-14,234
-14,545
-14,807
-15,015
-15,169
-15,268
-15,309
-15,294
-15,221
-15,092
-14,906
-14,666
-14,373
-14,029
-13,636
-13,198
-12,717
-12,197
-11,642
-11,055
-10,439
-9,8
-9,142
-8,468
-7,782
-7,089
-6,392
-5,696
-5,002
-4,314
-3,636
-2,968
-2,314
-1,674
-1,051
-0,446
0,141
0,708
1,255
1,78
2,285
2,767
3,228
3,667
4,085
4,481
4,856
5,211
5,546
5,861
6,159
6,439
6,702
6,95
7,184
7,405
7,613
7,811
7,998
8,175
8,343
8,502
8,651
8,792
8,923
9,045
9,155
9,255
9,343
9,42
9,484
9,535
9,575
9,602
9,618
9,624
9,619
9,605
9,583
9,556
9,523
9,486
9,448
9,41
9,373
9,339
9,309
9,287
9,273
9,269
9,279
9,303
9,344
9,405
9,489
9,597
9,733
9,9
10,1
10,336
10,61
10,925
11,282
11,684
12,131
12,625
13,164
13,75
14,381
15,056
15,775
16,534
17,332
18,166
19,034
19,933
20,858
21,806
22,773
23,755
24,747
25,743
26,737
27,723
28,695
29,646
30,569
31,457
32,302
33,099
33,842
34,524
35,141
35,685
36,152
36,536
36,831
37,033
37,137
37,141
37,043
36,845
36,548
36,154
35,665
35,078
34,391
33,607
32,727
31,754
30,694
29,556
28,359
27,129
25,889
24,664
23,475
22,338
21,27
20,294
19,428
18,7
18,134
17,744
17,546
17,556
17,777
18,197
18,775
19,446
20,152
20,839
21,468
22,002
22,383
22,547
22,431
21,97
21,127
19,856
18,067
15,747
12,977
9,929
6,948
4,385
2,463
1,47
1,729
3,287
6,063
9,736
13,54
16,888
19,466
20,803
20,62
19,195
17,041
15,224
15,518
19,303
27,805
42,517
64,427
93,803
130,307
172,543
218,271
265,358
311,173
352,425
386,025
409,169
419,887
417,32
401,156
371,471
329,427
277,337
218,277
155,898
93,391
33,575
-20,558
-66,354
-101,924
-126,5
-140,602
-145,603
-142,893
-134,119
-121,436
-107,022
-92,952
-80,589
-70,319
-62,068
-55,637
-50,611
-46,359
-42,121
-37,062
-30,786
-23,41
-15,208
-6,566
2,115
10,465
18,028
24,332
29,14
32,427
34,274
34,857
34,322
32,781
30,408
27,41
23,978
20,277
16,429
12,522
8,671
5,015
1,685
-1,223
-3,66
-5,615
-7,084
-8,068
-8,58
-8,647
-8,322
-7,67
-6,754
-5,633
-4,358
-2,98
-1,564
-0,186
1,09
2,221
3,185
3,976
4,589
5,023
5,281
5,383
5,354
5,22
5,003
4,722
4,394
4,045
3,703
3,401
3,166
3,015
2,96
3,01
3,173
3,456
3,86
4,382
5,016
5,761
6,614
7,576
8,644
9,812
11,074
12,422
13,847
15,345
16,906
18,521
20,183
21,881
23,607
25,353
27,11
28,866
30,61
32,33
34,013
35,65
37,226
38,73
40,152
41,479
42,703
43,814
44,803
45,662
46,385
46,963
47,393
47,67
47,789
47,748
47,546
47,182
46,658
45,975
45,137
44,148
43,011
41,735
40,324
38,788
37,135
35,375
33,517
31,572
29,553
27,47
25,336
23,162
20,962
18,748
16,531
14,325
12,14
9,988
7,881
5,828
3,841
1,928
0,099
-1,638
-3,276
-4,809
-6,23
-7,536
-8,722
-9,786
-10,725
-11,538
-12,227
-12,791
-13,233
-13,555
-13,761
-13,856
-13,844
-13,733
-13,529
-13,24
-12,872
-12,435
-11,937
-11,387
-10,793
-10,166
-9,514
-8,846
-8,173
-7,502
-6,845
-6,209
-5,603
-5,036
-4,515
-4,048
-3,642
-3,303
-3,038
-2,852
-2,75
-2,735
-2,812
-2,984
-3,252
-3,619
-4,085
-4,651
-5,316
-6,08
-6,941
-7,897
-8,947
-10,088
-11,317
-12,631
-14,028
-15,503
-17,054
-18,676
-20,367
-22,121
-23,937
-25,809
-27,735
-29,711
-31,734
-33,801
-35,909
-38,055
-40,238
-42,454
-44,702
-46,98
-49,288
-51,622
-53,984
-56,372
-58,785
-61,224
-63,69
-66,181
-68,698
-71,243
-73,814
-76,413
-79,039
-81,692
-84,373
-87,081
-89,814
-92,573
-95,356
-98,16
-100,985
-103,828
-106,686
-109,555
-112,431
-115,311
-118,189
-121,061
-123,919
-126,76
-129,575
-132,358
-135,102
-137,798
-140,439
-143,017
-145,522
-147,946
-150,28
-152,515
-154,641
-156,649
-158,53
-160,276
-161,877
-163,326
-164,615
-165,735
-166,681
-167,445
-168,022
-168,405
-168,592
-168,577
-168,358
-167,932
-167,299
-166,457
-165,408
-164,151
-162,69
-161,027
-159,166
-157,112
-154,87
-152,446
-149,847
-147,082
-144,158
-141,086
-137,873
-134,532
-131,073
-127,507
-123,845
-120,1
-116,283
-112,407
-108,484
-104,526
-100,546
-96,557
-92,569
-88,596
-84,648
-80,738
-76,875
-73,07
-69,333
-65,673
-62,098
-58,616
-55,235
-51,962
-48,801
-45,76
-42,841
-40,05
-37,388
-34,859
-32,464
-30,203
-28,077
-26,085
-24,227
-22,499
-20,9
-19,427
-18,076
-16,843
-15,723
-14,712
-13,804
-12,993
-12,272
-11,636
-11,076
-10,586
-10,161
-9,791
-9,472
-9,195
-8,955
-8,743
-8,555
-8,382
-8,219
-8,059
-7,896
-7,725
-7,54
-7,336
-7,109
-6,855
-6,57
-6,251
-5,895
-5,5
-5,062
-4,582
-4,057
-3,487
-2,873
-2,215
-1,514
-0,771
0,01
0,827
1,677
2,557
3,462
4,39
5,336
6,296
7,265
8,238
9,21
10,176
11,128
12,058
12,96
13,827
14,651
15,426
16,145
16,804
17,398
17,924
18,378
18,756
19,053
19,264
19,389
19,425
19,371
19,227
18,993
18,673
18,274
17,802
17,258
16,641
15,945
15,169
14,317
13,391
12,4
11,352
10,255
9,129
8,003
6,9
5,843
4,851
3,932
3,11
2,416
1,883
1,553
1,452
1,591
1,985
2,638
3,537
4,666
5,986
7,441
8,982
10,545
12,066
13,488
14,727
15,709
16,326
16,423
15,96
14,992
13,64
12,152
10,725
9,437
8,507
8,278
8,834
10,101
11,701
12,897
13,363
13,156
12,207
10,384
7,774
4,699
2,222
2,065
5,277
12,377
23,96
40,691
63,331
92,382
127,2
166,097
207,722
250,877
293,949
334,792
370,456
397,784
414,542
419,59
411,892
390,782
356,414
309,937
254,045
192,488
128,884
66,37
8,116
-43,108
-85,039
-115,954
-135,638
-145,12
-145,643
-138,643
-125,833
-108,639
-88,684
-67,955
-47,651
-28,451
-11,153
3,898
16,527
26,167
32,747
36,842
38,78
39,076
38,605
37,738
36,785
36,402
36,797
37,825
39,435
41,228
42,579
43,277
43,181
42,069
40,033
37,248
33,848
30,175
26,623
23,398
20,671
18,571
17,091
16,234
16,004
16,327
17,128
18,347
19,912
21,762
23,84
26,063
28,348
30,631
32,853
34,972
36,952
38,765
40,395
41,84
43,108
44,205
45,137
45,912
46,548
47,066
47,493
47,858
48,192
48,521
48,866
49,246
49,672
50,154
50,699
51,307
51,979
52,717
53,524
54,403
55,358
56,391
57,501
58,689
59,953
61,293
62,706
64,19
65,746
67,371
69,065
70,826
72,653
74,542
76,488
78,486
80,529
82,609
84,72
86,851
88,993
91,139
93,277
95,398
97,493
99,552
101,565
103,521
105,411
107,223
108,949
110,578
112,101
113,507
114,789
115,937
116,943
117,801
118,503
119,043
119,417
119,619
119,645
119,493
119,162
118,649
117,954
117,08
116,026
114,796
113,392
111,82
110,084
108,189
106,141
103,946
101,613
99,148
96,561
93,858
91,051
88,148
85,159
82,094
78,964
75,779
72,549
69,286
66,001
62,702
59,402
56,109
52,835
49,588
46,377
43,211
40,098
37,044
34,058
31,144
28,309
25,556
22,891
20,317
17,838
15,455
13,17
10,986
8,903
6,922
5,041
3,261
1,58
-0,003
-1,49
-2,883
-4,185
-5,399
-6,528
-7,575
-8,544
-9,438
-10,261
-11,017
-11,71
-12,343
-12,921
-13,447
-13,924
-14,356
-14,744
-15,092
-15,403
-15,677
-15,918
-16,128
-16,308
-16,459
-16,583
-16,682
-16,756
-16,807
-16,834
-16,84
-16,825
-16,79
-16,735
-16,662
-16,572
-16,465
-16,344
-16,209
-16,062
-15,904
-15,736
-15,56
-15,377
-15,189
-14,998
-14,806
-14,614
-14,426
-14,243
-14,069
-13,905
-13,754
-13,62
-13,504
-13,408
-13,337
-13,292
-13,275
-13,29
-13,338
-13,422
-13,543
-13,704
-13,905
-14,148
-14,433
-14,76
-15,13
-15,541
-15,994
-16,487
-17,019
-17,589
-18,195
-18,835
-19,507
-20,208
-20,936
-21,688
-22,462
-23,253
-24,059
-24,876
-25,702
-26,534
-27,367
-28,2
-29,028
-29,848
-30,658
-31,455
-32,234
-32,995
-33,733
-34,448
-35,136
-35,797
-36,428
-37,03
-37,6
-38,14
-38,649
-39,127
-39,575
-39,994
-40,384
-40,747
-41,084
-41,397
-41,689
-41,96
-42,215
-42,453
-42,679
-42,893
-43,099
-43,299
-43,496
-43,69
-43,886
-44,086
-44,291
-44,506
-44,731
-44,97
-45,226
-45,499
-45,792
-46,108
-46,448
-46,813
-47,206
-47,627
-48,078
-48,559
-49,071
-49,615
-50,191
-50,799
-51,438
-52,109
-52,811
-53,543
-54,305
-55,095
-55,913
-56,757
-57,627
-58,521
-59,437
-60,373
-61,328
-62,3
-63,285
-64,282
-65,288
-66,301
-67,316
-68,332
-69,345
-70,351
-71,347
-72,329
-73,293
-74,236
-75,154
-76,042
-76,898
-77,718
-78,497
-79,233
-79,923
-80,562
-81,148
-81,678
-82,148
-82,556
-82,898
-83,173
-83,378
-83,512
-83,573
-83,559
-83,47
-83,305
-83,065
-82,748
-82,356
-81,89
-81,35
-80,74
-80,06
-79,314
-78,506
-77,639
-76,717
-75,745
-74,727
-73,67
-72,577
-71,455
-70,309
-69,146
-67,973
-66,796
-65,623
-64,461
-63,318
-62,203
-61,123
-60,088
-59,105
-58,184
-57,33
-56,553
-55,858
-55,249
-54,733
-54,312
-53,993
-53,778
-53,67
-53,674
-53,793
-54,027
-54,379
-54,847
-55,424
-56,108
-56,893
-57,775
-58,755
-59,83
-60,996
-62,251
-63,588
-64,999
-66,474
-67,987
-69,51
-71,011
-72,462
-73,839
-75,125
-76,297
-77,337
-78,22
-78,918
-79,409
-79,677
-79,703
-79,471
-78,976
-78,231
-77,286
-76,21
-75,073
-73,936
-72,835
-71,809
-70,916
-70,214
-69,776
-69,672
-69,935
-70,621
-71,825
-73,545
-75,703
-78,087
-80,271
-81,861
-82,542
-81,952
-79,856
-76,263
-71,343
-65,692
-60,243
-55,752
-52,908
-52,297
-53,938
-57,367
-61,662
-65,092
-65,614
-61,302
-50,121
-30,413
-1,458
36,567
82,456
133,924
188,202
241,955
291,184
331,974
360,939
375,744
375,209
358,919
327,209
281,656
225,127
161,353
94,537
28,32
-34,086
-89,371
-134,761
-168,479
-190,039
-200,349
-201,193
-194,321
-181,717
-165,898
-149,295
-134,035
-121,414
-111,647
-104,439
-99,418
-96,008
-93,397
-90,706
-87,048
-81,998
-75,698
-68,467
-60,699
-52,792
-45,087
-37,974
-31,87
-26,987
-23,342
-20,849
-19,338
-18,658
-18,707
-19,34
-20,39
-21,714
-23,168
-24,653
-26,101
-27,433
-28,58
-29,489
-30,108
-30,406
-30,373
-30,008
-29,322
-28,339
-27,082
-25,585
-23,895
-22,06
-20,14
-18,187
-16,249
-14,377
-12,611
-10,975
-9,494
-8,182
-7,04
-6,071
-5,268
-4,617
-4,104
-3,714
-3,427
-3,222
-3,076
-2,961
-2,851
-2,717
-2,533
-2,281
-1,944
-1,507
-0,961
-0,297
0,492
1,407
2,451
3,627
4,937
6,383
7,966
9,684
11,533
13,507
15,603
17,813
20,132
22,554
25,071
27,674
30,356
33,108
35,922
38,785
41,685
44,609
47,544
50,475
53,388
56,268
59,101
61,872
64,568
67,174
69,678
72,066
74,328
76,45
78,421
80,232
81,872
83,333
84,607
85,686
86,565
87,238
87,703
87,956
87,994
87,818
87,426
86,821
86,003
84,977
83,746
82,315
80,691
78,881
76,893
74,736
72,418
69,951
67,345
64,61
61,759
58,802
55,752
52,622
49,422
46,166
42,866
39,535
36,184
32,827
29,474
26,138
22,83
19,56
16,339
13,178
10,085
7,07
4,142
1,308
-1,425
-4,05
-6,561
-8,952
-11,221
-13,362
-15,372
-17,25
-18,993
-20,6
-22,07
-23,403
-24,6
-25,66
-26,587
-27,381
-28,045
-28,581
-28,993
-29,285
-29,46
-29,522
-29,475
-29,323
-29,073
-28,727
-28,291
-27,77
-27,168
-26,492
-25,745
-24,932
-24,059
-23,129
-22,148
-21,119
-20,047
-18,936
-17,79
-16,613
-15,409
-14,182
-12,936
-11,674
-10,4
-9,117
-7,829
-6,538
-5,248
-3,962
-2,682
-1,411
-0,151
1,094
2,323
3,534
4,723
5,89
7,032
8,147
9,233
10,289
11,312
12,302
13,255
14,17
15,046
15,881
16,673
17,421
18,123
18,78
19,389
19,951
20,465
20,931
21,349
21,718
22,04
22,315
22,543
22,726
22,864
22,958
23,011
23,023
22,996
22,932
22,832
22,699
22,534
22,34
22,119
21,873
21,604
21,316
21,012
20,693
20,362
20,024
19,679
19,332
18,984
18,638
18,296
17,96
17,633
17,315
17,009
16,715
16,434
16,168
15,917
15,682
15,462
15,258
15,069
14,896
14,736
14,59
14,457
14,336
14,226
14,125
14,032
13,946
13,864
13,785
13,708
13,629
13,547
13,459
13,363
13,257
13,14
13,008
12,86
12,695
12,51
12,305
12,077
11,827
11,552
11,253
10,93
10,581
10,207
9,809
9,387
8,942
8,476
7,988
7,48
6,955
6,412
5,855
5,285
4,703
4,113
3,516
2,915
2,313
1,712
1,115
0,526
-0,052
-0,617
-1,167
-1,697
-2,206
-2,691
-3,149
-3,579
-3,978
-4,345
-4,678
-4,976
-5,239
-5,465
-5,655
-5,809
-5,927
-6,011
-6,061
-6,08
-6,068
-6,028
-5,962
-5,872
-5,762
-5,633
-5,491
-5,339
-5,181
-5,024
-4,873
-4,735
-4,617
-4,525
-4,466
-4,446
-4,472
-4,546
-4,673
-4,858
-5,103
-5,415
-5,797
-6,252
-6,782
-7,388
-8,071
-8,83
-9,663
-10,563
-11,526
-12,548
-13,628
-14,772
-15,982
-17,259
-18,602
-20,004
-21,459
-22,957
-24,484
-26,017
-27,532
-29,009
-30,426
-31,772
-33,029
-34,175
-35,18
-36,006
-36,619
-36,993
-37,11
-36,962
-36,551
-35,887
-34,993
-33,903
-32,665
-31,331
-29,966
-28,634
-27,402
-26,336
-25,531
-25,126
-25,205
-25,762
-26,682
-27,727
-28,642
-29,247
-29,325
-28,56
-26,784
-24,109
-20,929
-18,009
-16,126
-15,725
-17,154
-20,819
-26,743
-34,335
-42,408
-49,018
-52,076
-50,087
-41,654
-25,256
0,056
34,334
76,606
124,617
175,664
227,524
277,561
322,449
358,993
384,497
397,356
397,343
384,674
359,305
322,034
274,984
221,098
163,77
105,855
49,501
-3,112
-49,395
-87,1
-115,133
-133,587
-143,383
-145,474
-140,807
-130,54
-116,319
-100,314
-84,253
-69,171
-55,754
-44,404
-35,324
-28,836
-25,066
-23,397
-23,202
-23,926
-24,833
-25,584
-26,078
-25,924
-24,716
-22,48
-19,326
-15,586
-11,911
-8,583
-5,637
-3,231
-1,492
-0,434
-0,053
-0,141
-0,286
-0,271
-0,022
0,513
1,303
2,343
3,659
5,202
6,873
8,601
10,336
12,055
13,774
15,482
17,143
18,723
20,178
21,483
22,634
23,628
24,468
25,157
25,703
26,121
26,435
26,662
26,818
26,916
26,964
26,976
26,971
26,966
26,985
27,045
27,161
27,347
27,615
27,977
28,443
29,02
29,714
30,532
31,481
32,565
33,792
35,165
36,688
38,362
40,186
42,161
44,283
46,549
48,953
51,49
54,152
56,931
59,819
62,804
65,876
69,023
72,231
75,487
78,776
82,082
85,39
88,683
91,945
95,161
98,312
101,384
104,36
107,225
109,965
112,564
115,01
117,29
119,39
121,301
123,012
124,513
125,797
126,855
127,683
128,275
128,627
128,737
128,603
128,225
127,604
126,742
125,642
124,308
122,746
120,964
118,968
116,768
114,374
111,796
109,046
106,136
103,079
99,887
96,574
93,155
89,642
86,051
82,395
78,689
74,946
71,181
67,407
63,638
59,885
56,164
52,484
48,858
45,298
41,813
38,414
35,111
31,911
28,822
25,851
23,005
20,287
17,702
15,253
12,943
10,772
8,741
6,85
5,098
3,483
2,003
0,655
-0,565
-1,661
-2,638
-3,499
-4,252
-4,9
-5,451
-5,909
-6,281
-6,574
-6,793
-6,945
-7,037
-7,076
-7,067
-7,018
-6,934
-6,821
-6,686
-6,534
-6,369
-6,196
-6,02
-5,845
-5,673
-5,509
-5,355
-5,213
-5,086
-4,975
-4,882
-4,808
-4,753
-4,718
-4,704
-4,711
-4,738
-4,786
-4,855
-4,944
-5,052
-5,18
-5,326
-5,49
-5,671
-5,867
-6,079
-6,304
-6,542
-6,792
-7,053
-7,325
-7,606
-7,897
-8,198
-8,507
-8,825
-9,152
-9,487
-9,832
-10,185
-10,547
-10,919
-11,302
-11,694
-12,097
-12,512
-12,938
-13,375
-13,825
-14,287
-14,761
-15,249
-15,748
-16,261
-16,787
-17,326
-17,879
-18,444
-19,023
-19,615
-20,219
-20,836
-21,465
-22,106
-22,756
-23,417
-24,086
-24,763
-25,446
-26,135
-26,828
-27,524
-28,222
-28,92
-29,617
-30,311
-31,001
-31,685
-32,362
-33,03
-33,687
-34,333
-34,965
-35,581
-36,182
-36,764
-37,326
-37,867
-38,385
-38,878
-39,346
-39,785
-40,195
-40,573
-40,919
-41,232
-41,51
-41,752
-41,958
-42,126
-42,257
-42,35
-42,403
-42,418
-42,393
-42,329
-42,226
-42,084
-41,905
-41,688
-41,435
-41,148
-40,827
-40,476
-40,095
-39,688
-39,255
-38,8
-38,326
-37,837
-37,335
-36,825
-36,312
-35,801
-35,298
-34,808
-34,339
-33,896
-33,485
-33,112
-32,783
-32,503
-32,274
-32,103
-31,991
-31,944
-31,966
-32,062
-32,237
-32,492
-32,831
-33,257
-33,77
-34,367
-35,046
-35,804
-36,641
-37,561
-38,566
-39,657
-40,832
-42,089
-43,421
-44,817
-46,258
-47,718
-49,172
-50,593
-51,96
-53,257
-54,465
-55,565
-56,532
-57,337
-57,957
-58,374
-58,574
-58,543
-58,278
-57,804
-57,161
-56,41
-55,61
-54,801
-54,023
-53,334
-52,795
-52,474
-52,449
-52,759
-53,462
-54,653
-56,339
-58,469
-60,9
-63,311
-65,377
-66,863
-67,462
-66,863
-65,037
-62,081
-58,33
-54,569
-51,425
-49,285
-48,678
-49,903
-52,613
-56,158
-59,325
-60,165
-57,107
-48,796
-33,595
-10,449
20,7
59,23
103,424
150,617
198,463
244,311
284,753
316,807
338,219
347,541
344,597
329,925
303,873
267,588
223,466
174,218
122,667
71,302
21,896
-23,822
-63,739
-96,284
-120,938
-137,821
-147,587
-151,071
-149,008
-142,42
-132,819
-121,666
-110,01
-98,686
-88,309
-79,166
-71,456
-65,262
-60,443
-56,863
-54,41
-52,706
-51,205
-49,642
-47,889
-45,838
-43,418
-40,435
-36,755
-32,624
-28,549
-24,865
-21,744
-19,262
-17,435
-16,4
-16,245
-16,827
-17,836
-19,022
-20,231
-21,407
-22,546
-23,572
-24,408
-25,04
-25,495
-25,81
-25,988
-26,003
-25,818
-25,419
-24,824
-24,066
-23,18
-22,188
-21,115
-19,99
-18,846
-17,729
-16,663
-15,659
-14,724
-13,865
-13,096
-12,432
-11,878
-11,427
-11,071
-10,795
-10,588
-10,435
-10,317
-10,207
-10,08
-9,906
-9,666
-9,344
-8,926
-8,4
-7,753
-6,979
-6,07
-5,025
-3,839
-2,502
-1,009
0,64
2,436
4,367
6,42
8,584
10,845
13,184
15,588
18,046
20,558
23,133
25,772
28,47
31,215
33,982
36,758
39,538
42,317
45,096
47,873
50,643
53,412
56,202
59,013
61,833
64,628
67,342
69,932
72,375
74,647
76,741
78,639
80,311
81,737
82,897
83,77
84,336
84,558
84,383
83,784
82,76
81,336
79,568
77,498
75,148
72,545
69,71
66,668
63,451
60,083
56,576
52,954
49,244
45,488
41,751
38,068
34,459
30,925
27,444
24,007
20,616
17,269
13,965
10,704
7,488
4,324
1,235
-1,769
-4,682
-7,508
-10,263
-12,949
-15,562
-18,091
-20,519
-22,832
-25,025
-27,088
-29,01
-30,786
-32,412
-33,893
-35,238
-36,454
-37,546
-38,516
-39,365
-40,095
-40,713
-41,224
-41,637
-41,957
-42,193
-42,352
-42,445
-42,478
-42,461
-42,397
-42,292
-42,15
-41,976
-41,776
-41,554
-41,316
-41,064
-40,805
-40,543
-40,282
-40,025
-39,775
-39,534
-39,303
-39,086
-38,881
-38,692
-38,518
-38,359
-38,217
-38,092
-37,983
-37,892
-37,817
-37,759
-37,717
-37,691
-37,68
-37,683
-37,7
-37,73
-37,771
-37,822
-37,883
-37,951
-38,026
-38,107
-38,191
-38,278
-38,365
-38,453
-38,538
-38,621
-38,7
-38,773
-38,841
-38,902
-38,956
-39,002
-39,04
-39,069
-39,088
-39,097
-39,096
-39,082
-39,057
-39,018
-38,965
-38,897
-38,815
-38,716
-38,602
-38,47
-38,322
-38,157
-37,976
-37,778
-37,564
-37,335
-37,092
-36,836
-36,567
-36,288
-36
-35,704
-35,401
-35,092
-34,779
-34,463
-34,145
-33,826
-33,507
-33,189
-32,873
-32,56
-32,25
-31,946
-31,649
-31,358
-31,076
-30,803
-30,541
-30,289
-30,049
-29,822
-29,607
-29,405
-29,216
-29,04
-28,877
-28,726
-28,585
-28,455
-28,334
-28,219
-28,109
-28,002
-27,897
-27,792
-27,686
-27,576
-27,463
-27,344
-27,22
-27,089
-26,951
-26,806
-26,653
-26,493
-26,325
-26,152
-25,972
-25,788
-25,601
-25,413
-25,228
-25,047
-24,873
-24,71
-24,561
-24,429
-24,318
-24,231
-24,171
-24,142
-24,147
-24,191
-24,279
-24,414
-24,602
-24,847
-25,153
-25,523
-25,958
-26,457
-27,018
-27,641
-28,325
-29,072
-29,886
-30,763
-31,702
-32,701
-33,754
-34,852
-35,978
-37,107
-38,218
-39,291
-40,309
-41,263
-42,137
-42,915
-43,58
-44,107
-44,476
-44,672
-44,679
-44,482
-44,076
-43,47
-42,698
-41,815
-40,874
-39,911
-38,951
-38,015
-37,149
-36,401
-35,828
-35,489
-35,415
-35,653
-36,301
-37,369
-38,78
-40,369
-41,793
-42,719
-42,951
-42,22
-40,229
-36,991
-32,651
-27,608
-22,722
-18,63
-15,678
-14,365
-14,974
-17,156
-20,287
-23,146
-23,752
-20,555
-12,246
2,742
25,376
55,772
93,422
136,712
183,071
230,077
274,942
314,296
345,256
365,459
373,288
368,303
350,721
321,118
281,156
233,479
180,939
126,606
73,214
22,995
-21,672
-58,73
-87,259
-107,277
-119,431
-124,889
-124,833
-120,509
-113,771
-106,515
-99,91
-94,518
-90,413
-87,318
-85
-83,195
-81,224
-78,265
-73,911
-68,096
-61,049
-53,22
-44,963
-36,555
-28,411
-21,008
-14,665
-9,575
-5,776
-3,158
-1,64
-1,153
-1,596
-2,857
-4,805
-7,294
-10,191
-13,38
-16,749
-20,202
-23,632
-26,919
-29,962
-32,676
-35,006
-36,938
-38,459
-39,565
-40,261
-40,559
-40,493
-40,118
-39,489
-38,655
-37,666
-36,56
-35,388
-34,216
-33,089
-32,045
-31,103
-30,266
-29,535
-28,914
-28,395
-27,964
-27,599
-27,276
-26,971
-26,668
-26,348
-25,989
-25,567
-25,052
-24,423
-23,664
-22,76
-21,704
-20,487
-19,1
-17,542
-15,817
-13,927
-11,877
-9,669
-7,307
-4,796
-2,141
0,651
3,577
6,634
9,81
13,092
16,464
19,901
23,385
26,893
30,402
33,889
37,339
40,74
44,091
47,393
50,639
53,816
56,904
59,881
62,742
65,482
68,099
70,603
72,999
75,3
77,531
79,708
81,825
83,866
85,79
87,547
89,106
90,442
91,542
92,398
92,99
93,298
93,311
93,005
92,358
91,342
89,908
88,023
85,685
82,91
79,746
76,259
72,496
68,497
64,303
59,942
55,45
50,864
46,205
41,501
36,788
32,108
27,524
23,087
18,826
14,752
10,857
7,116
3,516
0,05
-3,295
-6,524
-9,638
-12,64
-15,519
-18,267
-20,882
-23,371
-25,75
-28,036
-30,234
-32,343
-34,358
-36,264
-38,054
-39,722
-41,262
-42,67
-43,947
-45,097
-46,13
-47,061
-47,899
-48,652
-49,324
-49,919
-50,445
-50,909
-51,32
-51,686
-52,016
-52,32
-52,607
-52,885
-53,161
-53,441
-53,727
-54,022
-54,327
-54,644
-54,975
-55,319
-55,677
-56,05
-56,438
-56,839
-57,253
-57,677
-58,109
-58,546
-58,983
-59,418
-59,845
-60,262
-60,664
-61,046
-61,406
-61,74
-62,043
-62,312
-62,545
-62,737
-62,887
-62,991
-63,048
-63,055
-63,011
-62,915
-62,767
-62,567
-62,315
-62,012
-61,66
-61,261
-60,815
-60,327
-59,799
-59,234
-58,636
-58,009
-57,357
-56,685
-55,998
-55,301
-54,598
-53,894
-53,195
-52,505
-51,827
-51,168
-50,53
-49,917
-49,334
-48,783
-48,268
-47,791
-47,355
-46,96
-46,609
-46,303
-46,042
-45,827
-45,658
-45,534
-45,455
-45,419
-45,427
-45,475
-45,561
-45,684
-45,84
-46,027
-46,241
-46,479
-46,737
-47,011
-47,299
-47,596
-47,899
-48,205
-48,51
-48,812
-49,106
-49,391
-49,664
-49,922
-50,163
-50,387
-50,592
-50,776
-50,94
-51,083
-51,206
-51,307
-51,387
-51,447
-51,488
-51,51
-51,515
-51,505
-51,48
-51,443
-51,396
-51,341
-51,28
-51,215
-51,15
-51,086
-51,025
-50,97
-50,923
-50,887
-50,862
-50,851
-50,856
-50,877
-50,916
-50,973
-51,048
-51,142
-51,254
-51,383
-51,527
-51,687
-51,86
-52,045
-52,239
-52,441
-52,649
-52,859
-53,068
-53,275
-53,476
-53,668
-53,848
-54,014
-54,16
-54,286
-54,387
-54,46
-54,503
-54,512
-54,485
-54,418
-54,309
-54,157
-53,958
-53,711
-53,415
-53,07
-52,674
-52,227
-51,731
-51,186
-50,592
-49,953
-49,269
-48,544
-47,78
-46,982
-46,153
-45,299
-44,424
-43,535
-42,636
-41,734
-40,835
-39,945
-39,068
-38,21
-37,375
-36,57
-35,8
-35,069
-34,385
-33,753
-33,178
-32,668
-32,228
-31,861
-31,568
-31,349
-31,206
-31,141
-31,157
-31,26
-31,447
-31,72
-32,078
-32,518
-33,033
-33,61
-34,223
-34,848
-35,461
-36,042
-36,578
-37,055
-37,453
-37,753
-37,932
-37,967
-37,847
-37,559
-37,09
-36,435
-35,6
-34,614
-33,545
-32,457
-31,41
-30,45
-29,597
-28,888
-28,383
-28,137
-28,221
-28,695
-29,577
-30,914
-32,786
-35,164
-37,935
-40,872
-43,55
-45,617
-46,832
-46,895
-45,586
-42,949
-39,161
-34,684
-30,317
-26,621
-23,984
-22,88
-23,348
-24,863
-26,578
-27,132
-24,821
-18,269
-6,127
13,103
40,093
74,516
115,275
160,431
207,699
254,737
298,621
335,856
363,539
379,817
383,794
375,368
354,605
322,102
279,697
230,404
177,487
123,713
71,352
22,527
-20,289
-54,955
-80,556
-97,44
-106,684
-109,372
-106,548
-99,528
-90,275
-80,899
-72,727
-66,244
-61,365
-57,845
-55,486
-53,996
-52,676
-50,619
-47,347
-42,806
-37,246
-31,091
-24,655
-18,173
-11,99
-6,506
-1,965
1,53
3,999
5,56
6,306
6,32
5,71
4,608
3,15
1,469
-0,306
-2,049
-3,661
-5,069
-6,221
-7,092
-7,665
-7,92
-7,846
-7,434
-6,684
-5,612
-4,234
-2,568
-0,653
1,46
3,707
5,999
8,278
10,505
12,655
14,72
16,692
18,561
20,326
21,99
23,556
25,027
26,408
27,698
28,909
30,06
31,176
32,293
33,441
34,636
35,894
37,226
38,639
40,142
41,741
43,432
45,22
47,108
49,103
51,213
53,444
55,796
58,272
60,869
63,585
66,42
69,368
72,425
75,588
78,852
82,214
85,675
89,232
92,878
96,609
100,414
104,286
108,212
112,176
116,164
120,163
124,159
128,148
132,123
136,078
140,004
143,889
147,713
151,455
155,087
158,576
161,892
165,005
167,888
170,519
172,876
174,936
176,671
178,043
179,005
179,514
179,527
179,019
177,997
176,474
174,474
172,02
169,115
165,784
162,054
157,935
153,449
148,604
143,406
137,967
132,472
127,019
121,667
116,379
110,912
105,04
98,607
91,31
82,891
73,391
62,934
