Name,Yannick Börner
Date of Birth,"29. Sep 1994"
Recorded Date,2019-12-18 12:08:35 +0100
Classification,Inconclusive
Symptoms,
Software Version,1.18
Device,"Watch4,1"
Sample Rate,511,68 hertz


Lead,Lead I
Unit,µV

-208,763
-264,407
-295,994
-300,078
-282,212
-253,631
-223,589
-197,805
-180,434
-171,841
-176,038
-191,95
-211,417
-229,297
-238,356
-236,788
-230,923
-224,197
-219,34
-217,451
-215,874
-213,683
-211,422
-209,142
-207,229
-205,708
-204,041
-202,031
-199,754
-197,156
-194,124
-190,633
-186,706
-182,429
-177,952
-173,35
-168,61
-163,763
-158,874
-154,034
-149,369
-144,97
-140,882
-137,145
-133,784
-130,807
-128,214
-125,967
-123,991
-122,22
-120,602
-119,096
-117,68
-116,32
-114,963
-113,548
-112,003
-110,273
-108,322
-106,118
-103,637
-100,875
-97,84
-94,567
-91,116
-87,534
-83,853
-80,098
-76,279
-72,413
-68,525
-64,636
-60,766
-56,935
-53,156
-49,445
-45,821
-42,291
-38,858
-35,516
-32,25
-29,052
-25,927
-22,88
-19,922
-17,064
-14,315
-11,686
-9,188
-6,835
-4,637
-2,606
-0,753
0,911
2,376
3,63
4,668
5,49
6,105
6,526
6,769
6,846
6,766
6,535
6,152
5,615
4,917
4,058
3,046
1,889
0,6
-0,811
-2,338
-3,989
-5,781
-7,735
-9,88
-12,237
-14,82
-17,633
-20,662
-23,874
-27,214
-30,629
-34,079
-37,526
-40,94
-44,285
-47,512
-50,562
-53,372
-55,874
-57,991
-59,649
-60,777
-61,308
-61,209
-60,49
-59,198
-57,392
-55,117
-52,428
-49,379
-46,041
-42,512
-38,886
-35,242
-31,661
-28,23
-25,037
-22,18
-19,753
-17,807
-16,353
-15,365
-14,803
-14,634
-14,807
-15,255
-15,889
-16,593
-17,272
-17,864
-18,31
-18,559
-18,578
-18,324
-17,767
-16,915
-15,771
-14,363
-12,751
-10,998
-9,201
-7,483
-5,943
-4,7
-3,882
-3,51
-3,537
-3,835
-4,109
-4,061
-3,481
-2,186
-0,051
2,784
6,06
9,456
12,402
14,387
15,109
14,426
12,522
10,238
8,77
9,236
12,968
21,201
34,906
54,985
81,768
114,34
150,962
189,952
229,42
267,5
302,455
332,032
354,194
368,316
374,78
373,948
366,319
352,222
331,763
306,23
277,614
247,005
214,967
182,345
150,055
119,864
94,448
75,155
62,076
55,633
56,127
63,46
77,512
96,694
117,901
139,124
159,43
177,837
193,812
206,888
216,266
222,54
227,66
232,787
238,477
245,152
252,71
261,303
271,553
283,231
295,364
307,37
318,867
329,693
340,105
350,115
359,457
368,195
376,642
385,041
393,645
402,553
411,661
420,965
430,536
440,392
450,526
460,893
471,411
482,047
492,811
503,706
514,721
525,805
536,889
547,932
558,919
569,866
580,78
591,611
602,278
612,703
622,819
632,626
642,111
651,16
659,693
667,724
675,399
683,102
691,217
699,812
708,769
717,948
727,083
735,911
744,014
750,409
754,038
754,489
752,029
747,536
742,263
737,362
734,228
734,805
741,114
754,831
775,15
799,989
828,592
858,914
891,636
927,632
960,41
985,304
997,133
990,87
973,067
950,207
927,254
910,772
899,62
892,393
889,981
890,87
895,129
902,378
910,471
918,201
924,528
928,271
928,684
925,545
919,164
910,5
900,789
890,763
880,768
871,171
862,289
854,32
847,251
840,625
833,977
827,301
820,787
814,702
809,372
804,973
801,959
801,219
803,193
807,76
814,454
822,395
830,812
839,248
846,84
852,319
854,992
854,721
851,982
847,946
843,498
839,123
835,579
833,816
834,43
837,687
843,273
850,26
858,005
866,197
874,474
882,516
890,085
897,015
903,423
909,698
916,062
922,577
929,26
936,046
942,91
949,866
956,88
963,891
970,901
977,955
985,123
992,502
1000,139
1008,029
1016,158
1024,498
1033,031
1041,747
1050,593
1059,472
1068,262
1076,822
1085,035
1092,81
1099,979
1106,312
1111,648
1115,885
1119,085
1121,499
1123,199
1124,047
1123,907
1122,637
1120,077
1116,158
1110,527
1102,468
1091,765
1078,734
1064,002
1048,582
1033,384
1019,039
1006,556
997,319
992,091
991,014
993,629
998,764
1005,485
1013,214
1021,058
1027,913
1033,053
1036,087
1037,164
1037,018
1036,079
1034,446
1032,297
1029,801
1027,055
1024,117
1020,813
1016,718
1011,596
1005,446
998,372
990,597
982,349
973,773
965,001
956,254
947,773
939,69
932,033
924,623
917,109
909,348
901,427
893,493
885,674
878,071
870,807
864,386
859,714
857,369
857,376
859,197
861,939
864,823
867,04
867,407
864,305
856,329
842,933
824,79
803,396
780,32
757,282
736,026
718,431
706,339
700,788
701,475
706,83
715,029
724,255
732,628
739,998
746,448
750,216
751,738
749,831
741,607
730,17
717,622
707,257
707,878
722,243
748,441
781,783
807,296
807,576
773,106
698,236
588,405
463,314
340,6
238,792
173,351
142,609
140,398
156,529
176,2
195,621
215,282
234,627
254,404
267,985
266,456
247,268
215,907
189,647
186,676
222,178
296,92
347,066
333,258
350,704
305,908
114,622
-1385,753
-1920,999
-2203,998
-2428,658
-2898,791
-3389,751
-3577,07
-3445,738
-3203,375
-2969,93
-2733,868
-2517,046
-2369,614
-2291,426
-2253,933
-2222,956
-2172,041
-2099,072
-2015,019
-1936,501
-1877,848
-1839,108
-1813,184
-1792,18
-1768,893
-1740,812
-1709,642
-1678,704
-1648,987
-1619,999
-1589,42
-1551,854
-1509,525
-1471,238
-1445,82
-1444,726
-1469,093
-1508,722
-1555,128
-1598,783
-1636,035
-1671,387
-1705,684
-1738,215
-1767,448
-1789,131
-1801,082
-1803,177
-1795,665
-1779,859
-1758,301
-1733,829
-1708,469
-1683,533
-1659,956
-1638,227
-1618,832
-1602,278
-1587,738
-1573,468
-1558,491
-1542,377
-1524,997
-1506,631
-1487,291
-1466,673
-1445,245
-1424,103
-1403,918
-1385,047
-1367,583
-1351,278
-1336,098
-1322,286
-1309,759
-1298,071
-1286,865
-1275,926
-1265,134
-1254,474
-1243,672
-1232,078
-1219,178
-1204,856
-1189,181
-1172,056
-1153,176
-1132,594
-1111,075
-1089,795
-1069,984
-1050,895
-1029,705
-1006,44
-982,756
-961,989
-950,151
-944,381
-935,855
-916,757
-876,905
-817,178
-749,081
-681,887
-626,636
-588,111
-561,321
-543,307
-531,668
-525,313
-527,076
-537,642
-554,832
-575,874
-597,967
-618,905
-637,357
-651,96
-660,635
-662,092
-656,447
-644,412
-626,849
-604,837
-579,406
-552,088
-525,309
-500,863
-479,638
-462,143
-448,439
-438,459
-432,219
-429,273
-428,635
-429,684
-432,173
-436,051
-441,598
-449,026
-458,381
-469,826
-483,568
-499,631
-517,9
-538,147
-560
-583,069
-606,958
-631,25
-655,586
-679,661
-703,219
-725,959
-747,483
-767,514
-785,946
-802,734
-817,951
-831,538
-843,188
-852,762
-860,404
-866,12
-869,758
-871,099
-869,598
-865,063
-858,122
-849,346
-839,088
-827,954
-816,622
-805,839
-796,94
-790,922
-787,514
-786,3
-786,906
-788,479
-790,206
-791,24
-789,944
-784,67
-774,96
-760,64
-741,665
-718,664
-692,225
-662,952
-632,266
-602,111
-573,83
-548,412
-526,622
-508,583
-494,327
-483,877
-476,653
-471,126
-465,648
-458,949
-449,98
-438,113
-422,953
-404,056
-381,216
-355,28
-327,609
-299,199
-270,925
-243,435
-217,104
-192,518
-170,287
-150,249
-131,85
-114,842
-99,01
-84,343
-70,944
-58,51
-46,754
-35,837
-26,068
-17,754
-11,168
-6,287
-3,339
-3,049
-5,831
-11,848
-20,92
-32,151
-44,705
-57,994
-70,752
-81,421
-88,943
-92,199
-90,854
-85,985
-78,625
-70,028
-62,476
-57,964
-58,032
-64,725
-79,192
-101,199
-130,544
-166,015
-205,115
-246,185
-287,982
-328,558
-366,572
-401,267
-431,624
-458,124
-482,612
-505,908
-528,322
-550,583
-573,01
-596,076
-620,811
-646,794
-672,286
-696,328
-718,394
-737,902
-754,697
-768,256
-777,445
-782,292
-783,943
-783,174
-780,636
-776,925
-772,236
-767,091
-762,469
-758,611
-755,08
-751,592
-747,852
-743,682
-739,201
-734,318
-728,715
-722,377
-715,517
-708,272
-700,764
-692,976
-684,726
-675,924
-666,551
-656,56
-645,898
-634,527
-622,419
-609,61
-596,179
-582,191
-567,694
-552,714
-537,242
-521,29
-504,878
-488,036
-470,799
-453,203
-435,286
-417,083
-398,631
-379,958
-361,085
-342,019
-322,768
-303,343
-283,752
-264,024
-244,226
-224,441
-204,779
-185,364
-166,32
-147,765
-129,814
-112,58
-96,159
-80,634
-66,069
-52,519
-40,042
-28,699
-18,562
-9,688
-2,098
4,229
9,359
13,381
16,397
18,513
19,856
20,571
20,796
20,646
20,21
19,569
18,819
18,089
17,541
17,339
17,633
18,554
20,203
22,695
26,152
30,685
36,383
43,297
51,456
60,931
71,848
84,335
98,495
114,402
132,037
151,407
172,571
195,463
219,924
245,667
272,19
299,034
325,905
352,421
378,149
402,961
426,83
450,014
473,352
497,427
522,49
548,94
576,87
605,625
634,293
661,323
684,149
700,653
709,044
707,266
694,229
670,065
635,502
592,474
544,276
494,071
445,426
402,581
368,604
345,501
334,577
335,76
347,966
369,758
398,436
430,338
462,505
492,362
517,96
538,33
552,662
560,631
563,218
562,135
559,028
555,634
553,074
551,928
553,061
556,966
563,436
571,969
581,763
591,837
601,728
611,259
620,095
628,133
635,418
642,028
648,324
654,764
661,55
668,766
676,46
684,57
693,085
702,022
711,297
720,811
730,497
740,307
750,231
760,288
770,46
780,718
791,021
801,323
811,597
821,827
831,996
842,094
852,104
862,008
871,8
881,479
891,038
900,47
909,762
918,898
927,871
936,676
945,31
953,774
962,064
970,177
978,11
985,86
993,426
1000,806
1007,997
1014,996
1021,8
1028,407
1034,814
1041,021
1047,023
1052,818
1058,403
1063,776
1068,936
1073,882
1078,615
1083,135
1087,443
1091,542
1095,434
1099,12
1102,602
1105,883
1108,966
1111,859
1114,569
1117,095
1119,438
1121,595
1123,561
1125,327
1126,883
1128,211
1129,293
1130,113
1130,659
1130,923
1130,903
1130,596
1130,001
1129,114
1127,938
1126,492
1124,801
1122,891
1120,794
1118,537
1116,157
1113,702
1111,219
1108,747
1106,317
1103,946
1101,648
1099,43
1097,304
1095,272
1093,317
1091,401
1089,468
1087,455
1085,303
1082,957
1080,359
1077,434
1074,111
1070,328
1066,032
1061,175
1055,715
1049,605
1042,792
1035,237
1026,922
1017,853
1008,072
997,636
986,6
975,016
962,931
950,411
937,53
924,366
911,007
897,553
884,111
870,812
857,814
845,272
833,345
822,182
811,887
802,544
794,241
787,064
781,123
776,509
773,279
771,464
771,064
772,044
774,355
777,901
782,525
788,044
794,23
800,836
807,641
814,428
820,96
826,987
832,213
836,348
839,147
840,399
839,928
837,593
833,262
826,855
818,368
807,844
795,39
781,151
765,269
747,913
729,289
709,63
689,229
668,388
647,369
626,42
605,76
585,579
566,078
547,409
529,662
512,89
497,095
482,246
468,306
455,202
442,823
431,033
419,65
408,478
397,341
386,062
374,49
362,491
349,925
336,684
322,693
307,906
292,304
275,867
258,581
240,454
221,519
201,845
181,541
160,682
139,343
117,675
95,809
73,86
51,955
30,128
8,362
-13,265
-34,654
-55,949
-77,323
-98,622
-119,843
-141,027
-161,742
-183,199
-206,593
-230,285
-253,807
-274,165
-287,746
-298,645
-309,592
-324,616
-349,227
-378,548
-408,451
-435,978
-456,331
-472,76
-488,512
-504,39
-522,54
-541,566
-559,716
-577,285
-593,993
-610,038
-625,916
-641,024
-654,752
-667,078
-677,87
-686,866
-693,987
-698,853
-700,998
-700,801
-698,687
-694,793
-689,499
-683,114
-675,764
-667,969
-660,276
-652,724
-645,553
-638,959
-632,788
-627,043
-621,726
-616,638
-611,712
-606,736
-601,001
-594,066
-585,82
-576,39
-566,408
-556,416
-546,75
-538,342
-532,677
-531,052
-534,492
-543,091
-555,87
-571,95
-590,364
-609,413
-626,989
-640,808
-648,828
-650,339
-645,641
-635,034
-619,284
-599,734
-577,945
-555,933
-535,303
-516,432
-499,472
-484,706
-471,997
-461,043
-451,525
-442,932
-435,625
-431,032
-430,251
-434,142
-443,743
-460,011
-483,813
-515,576
-554,409
-598,277
-645,181
-693,09
-739,713
-782,559
-819,124
-847,629
-867,507
-879,245
-883,759
-882,223
-876,238
-867,897
-859,37
-852,274
-847,545
-845,474
-845,96
-848,771
-853,392
-858,955
-864,687
-870,157
-875,22
-880,04
-884,934
-890,177
-896,129
-903,235
-911,746
-921,71
-933,041
-945,481
-958,736
-972,557
-986,653
-1000,72
-1014,521
-1027,841
-1040,487
-1052,316
-1063,158
-1072,821
-1081,119
-1087,874
-1092,958
-1096,31
-1097,919
-1097,804
-1096,023
-1092,646
-1087,769
-1081,512
-1073,985
-1065,295
-1055,551
-1044,859
-1033,343
-1021,154
-1008,461
-995,436
-982,217
-968,905
-955,572
-942,27
-929,035
-915,897
-902,868
-889,943
-877,14
-864,475
-851,948
-839,566
-827,316
-815,179
-803,172
-791,307
-779,565
-767,946
-756,481
-745,246
-734,386
-723,927
-713,728
-703,632
-693,504
-683,404
-673,408
-663,358
-653,239
-643,167
-633,357
-624,552
-616,104
-606,854
-597,781
-589,057
-583,607
-584,734
-588,249
-591,127
-588,742
-575,813
-558,03
-540,073
-525,15
-518,303
-516,556
-517,105
-520,048
-523,537
-528,217
-535,205
-543,862
-554,098
-565,768
-578,308
-591,363
-604,78
-618,438
-632,182
-645,902
-659,357
-672,095
-683,76
-694,096
-702,843
-709,836
-714,97
-718,12
-719,227
-718,312
-715,403
-710,572
-703,953
-695,674
-685,9
-674,85
-662,744
-649,822
-636,371
-622,679
-608,91
-595,144
-581,309
-567,175
-552,693
-538,001
-523,233
-508,532
-494,082
-480,034
-466,817
-455,169
-445,324
-436,995
-429,629
-422,374
-414,519
-405,636
-394,938
-381,288
-364,131
-343,47
-319,847
-294,43
-268,124
-241,456
-215,226
-190,433
-167,746
-147,568
-129,794
-113,739
-98,959
-85,283
-72,464
-60,274
-48,549
-37,146
-26,143
-15,839
-6,374
2,252
10,094
17,318
24,094
30,581
36,964
43,41
49,998
56,78
63,789
70,941
78,172
85,442
92,667
99,84
107,031
114,187
121,218
128,359
135,829
143,44
151,238
159,296
167,128
176,048
187,366
199,213
210,974
219,818
222,088
221,962
222,866
228,258
242,843
263,041
285,105
308,566
332,87
359,967
390,021
417,747
436,182
441,794
437,709
433,562
440,337
464,566
503,223
546,219
584,394
611,17
627,11
638,698
650,197
664,464
681,817
699,542
716,313
731,732
745,574
758,212
769,694
779,911
788,943
797,126
805,225
813,914
823,399
833,679
844,264
854,047
862,12
867,269
867,605
861,645
848,463
827,616
799,698
766,166
728,276
687,804
647,419
609,517
576,235
549,098
528,453
513,943
505,355
501,972
502,099
503,85
505,125
504,343
500,871
494,451
484,682
471,356
454,988
436,593
417,631
399,235
381,879
365,828
351,397
338,961
328,575
319,86
312,082
304,67
297,417
290,238
283,067
275,718
268,066
260,237
252,502
245,057
238,017
231,492
225,692
221,056
218,005
216,777
217,535
220,316
224,982
231,289
238,609
245,924
252,296
256,915
259,251
259,432
258,126
256,36
255,852
258,709
266,88
282,302
306,304
338,914
379,153
425,172
474,184
523,077
568,777
607,976
637,879
656,966
664,729
661,657
648,995
628,136
600,629
568,433
533,569
497,554
461,528
426,238
392,379
360,909
332,715
308,429
288,291
272,395
260,709
253,038
248,774
246,831
246,134
245,68
244,805
243,198
240,725
237,474
233,882
230,677
228,442
227,646
228,511
230,935
234,727
239,588
245,055
250,589
255,809
260,469
264,445
267,765
270,446
272,51
274,012
275,005
275,517
275,55
275,113
274,235
273,003
271,548
270,029
268,621
267,454
266,618
266,171
266,129
266,497
267,276
268,466
270,089
272,158
274,678
277,64
280,966
284,545
288,287
292,032
295,567
298,816
301,713
304,221
306,579
309,031
311,595
314,371
317,381
320,23
322,792
325,098
326,352
325,654
322,86
317,674
311,178
306,666
304,816
304,677
304,699
300,378
291,781
284,963
287,478
307,489
347,446
400,193
452,315
491,663
510,784
509,376
496,154
478,678
461,604
448,33
436,328
423,994
412,028
400,039
389,651
381,854
375,948
371,517
367,577
363,24
358,179
352,222
345,444
338,017
330,112
321,853
313,213
304,212
295,014
285,743
276,516
267,505
258,773
250,711
244,177
239,663
237,17
236,287
236,038
235,478
234,086
230,951
224,62
214,017
198,588
178,707
155,981
132,068
107,991
84,91
64,285
47,458
35,635
29,065
26,622
26,926
29,102
32,452
36,33
40,033
42,622
43,656
43,57
43,095
42,732
42,695
42,952
43,463
44,407
45,866
47,606
49,211
50,311
50,724
50,43
49,466
47,849
45,597
42,808
39,678
36,369
32,948
29,498
26,121
22,875
19,813
16,841
13,661
10,161
6,455
2,702
-0,848
-3,959
-6,522
-8,065
-7,687
-4,842
0,55
8,091
16,745
25,548
33,944
40,956
45,091
45,193
40,562
31,453
19,385
5,884
-8,16
-21,692
-33,351
-41,885
-46,159
-46,032
-42,756
-37,78
-31,984
-26,07
-20,696
-16,582
-14,651
-15,264
-17,824
-21,44
-25,487
-29,643
-33,843
-38,013
-41,825
-45,066
-47,878
-50,6
-53,553
-56,878
-60,486
-64,217
-68,015
-71,885
-75,821
-79,784
-83,69
-87,473
-91,12
-94,656
-98,11
-101,483
-104,736
-107,806
-110,633
-113,189
-115,492
-117,582
-119,483
-121,203
-122,735
-124,073
-125,228
-126,216
-127,035
-127,672
-128,114
-128,36
-128,436
-128,387
-128,254
-128,061
-127,813
-127,498
-127,116
-126,674
-126,184
-125,657
-125,094
-124,489
-123,85
-123,192
-122,526
-121,857
-121,169
-120,42
-119,586
-118,653
-117,616
-116,489
-115,276
-113,978
-112,607
-111,175
-109,707
-108,244
-106,808
-105,409
-104,058
-102,76
-101,542
-100,462
-99,558
-98,855
-98,375
-98,125
-98,126
-98,41
-98,981
-99,839
-100,972
-102,353
-103,989
-105,917
-108,179
-110,846
-113,977
-117,603
-121,781
-126,574
-132,025
-138,181
-145,057
-152,631
-160,908
-169,887
-179,547
-189,862
-200,728
-211,973
-223,399
-234,747
-245,739
-256,109
-265,52
-273,607
-280,059
-284,56
-286,825
-286,613
-283,595
-277,407
-267,841
-254,784
-238,279
-218,56
-195,912
-170,704
-143,542
-115,157
-86,095
-56,726
-27,207
2,717
33,615
66,137
101,054
138,09
175,104
209,923
241,794
273,437
309,704
351,585
392,369
417,236
410,551
365,964
291,03
202,197
115,012
37,316
-34,04
-102,13
-163,169
-210,713
-234,051
-230,228
-208,748
-179,626
-154,043
-138,002
-128,16
-122,028
-117,938
-115,081
-115,307
-118,789
-123,903
-128,896
-132,3
-133,594
-133,022
-131,064
-128,148
-124,714
-121,398
-118,853
-117,386
-117,042
-117,687
-119,042
-120,923
-123,185
-125,615
-128,01
-130,215
-132,088
-133,529
-134,46
-134,789
-134,446
-133,392
-131,607
-129,103
-125,911
-122,077
-117,656
-112,703
-107,271
-101,409
-95,162
-88,58
-81,732
-74,697
-67,573
-60,47
-53,472
-46,645
-40,036
-33,665
-27,536
-21,638
-15,942
-10,403
-4,988
0,331
5,577
10,773
15,964
21,213
26,609
32,26
38,26
44,683
51,579
58,971
66,852
75,189
83,921
92,952
102,189
111,551
120,955
130,314
139,523
148,448
156,932
164,815
171,946
178,181
183,414
187,563
190,587
192,481
193,264
192,989
191,71
189,468
186,31
182,289
177,47
171,947
165,84
159,254
152,296
145,078
137,672
130,136
122,497
114,745
106,872
98,866
90,719
82,449
74,083
65,646
57,176
48,691
40,183
31,663
23,132
14,587
6,056
-2,424
-10,797
-18,971
-26,875
-34,451
-41,649
-48,449
-54,851
-60,86
-66,513
-71,834
-76,83
-81,511
-85,876
-89,916
-93,64
-97,066
-100,223
-103,164
-105,933
-108,563
-111,084
-113,511
-115,852
-118,103
-120,236
-122,217
-124,022
-125,63
-127,036
-128,239
-129,234
-130,009
-130,539
-130,797
-130,759
-130,406
-129,716
-128,661
-127,203
-125,321
-123,013
-120,299
-117,213
-113,789
-110,054
-106,045
-101,808
-97,406
-92,918
-88,413
-83,942
-79,564
-75,333
-71,327
-67,643
-64,359
-61,531
-59,191
-57,347
-56,001
-55,155
-54,783
-54,84
-55,259
-55,953
-56,853
-57,915
-59,088
-60,326
-61,565
-62,721
-63,728
-64,541
-65,124
-65,455
-65,519
-65,297
-64,798
-64,051
-63,098
-61,997
-60,787
-59,487
-58,119
-56,699
-55,247
-53,795
-52,36
-50,947
-49,562
-48,211
-46,899
-45,64
-44,431
-43,26
-42,108
-40,955
-39,788
-38,604
-37,405
-36,189
-34,95
-33,686
-32,402
-31,116
-29,849
-28,608
-27,384
-26,184
-25,026
-23,929
-22,917
-21,984
-21,092
-20,245
-19,468
-18,736
-17,991
-17,175
-16,234
-15,183
-14,088
-12,953
-11,724
-10,563
-9,888
-9,821
-10,23
-11,127
-12,157
-14,227
-19,525
-27,19
-35,169
-39,73
-34,07
-19,357
-1,111
15,031
17,884
6,838
-12,058
-35,405
-51,652
-57,188
-54,807
-43,158
-29,847
-19,613
-12,498
-11,912
-14,708
-17,54
-20,117
-20,539
-19,629
-18,798
-17,828
-16,914
-15,962
-14,724
-13,476
-12,448
-11,656
-11,096
-10,714
-10,472
-10,354
-10,341
-10,396
-10,469
-10,547
-10,637
-10,75
-10,888
-11,044
-11,201
-11,329
-11,416
-11,464
-11,481
-11,491
-11,506
-11,525
-11,552
-11,584
-11,63
-11,714
-11,852
-12,06
-12,335
-12,651
-13
-13,39
-13,823
-14,325
-14,873
-15,363
-15,822
-16,39
-17,186
-18,38
-19,958
-21,636
-23,305
-25,058
-26,74
-28,063
-28,694
-28,089
-26,236
-23,781
-21,068
-18,18
-15,42
-13,083
-11,623
-11,857
-13,85
-16,823
-20,305
-24,012
-27,617
-31
-33,815
-35,346
-35,501
-34,816
-33,644
-32,278
-30,912
-29,475
-28,075
-27,047
-26,441
-26,051
-25,726
-25,299
-24,701
-24,028
-23,293
-22,436
-21,45
-20,35
-19,157
-17,918
-16,641
-15,295
-13,862
-12,334
-10,71
-9,008
-7,242
-5,419
-3,55
-1,641
0,295
2,244
4,192
6,124
8,027
9,888
11,692
13,421
15,059
16,585
17,982
19,238
20,341
21,279
22,041
22,614
22,99
23,165
23,133
22,885
22,409
21,686
20,702
19,448
17,92
16,118
14,045
11,71
9,13
6,332
3,341
0,182
-3,125
-6,57
-10,131
-13,775
-17,46
-21,129
-24,738
-28,251
-31,641
-34,893
-37,999
-40,962
-43,816
-46,609
-49,376
-52,162
-55,009
-57,951
-61,078
-64,481
-68,261
-72,573
-77,523
-83,106
-89,2
-95,523
-101,746
-107,619
-112,878
-117,21
-120,373
-122,334
-123,807
-125,839
-129,097
-134,285
-140,404
-146,311
-153,202
-160,659
-169,989
-182,297
-191,543
-193,77
-183,991
-156,253
-115,636
-66,964
-14,924
32,811
77,09
119,484
159,359
197,731
232,376
259,583
276,885
284,595
284,312
279,3
275,505
271,101
260,187
237,828
193,806
128,5
50,83
-32,772
-107,627
-165,914
-207,762
-230,616
-241,473
-245,643
-244,087
-241,239
-235,738
-226,702
-216,306
-204,015
-190,768
-177,862
-164,989
-152,492
-140,669
-129,042
-117,279
-105,915
-96,12
-88,766
-84,34
-82,658
-82,799
-84,319
-87,192
-90,862
-94,416
-97,168
-98,654
-99,008
-99,011
-99,063
-99,166
-99,42
-99,939
-100,82
-102,163
-103,763
-105,103
-105,823
-105,769
-104,869
-103,18
-100,744
-97,549
-93,666
-89,242
-84,415
-79,328
-74,087
-68,745
-63,342
-57,937
-52,586
-47,361
-42,35
-37,609
-33,175
-29,073
-25,31
-21,891
-18,821
-16,096
-13,685
-11,535
-9,576
-7,732
-5,948
-4,176
-2,364
-0,459
1,616
3,936
6,555
9,515
12,845
16,573
20,74
25,401
30,577
36,255
42,38
48,859
55,615
62,582
69,69
76,863
83,995
90,971
97,692
104,084
110,077
115,583
120,475
124,592
127,793
129,996
131,164
131,301
130,413
128,483
125,503
121,495
116,504
110,582
103,764
96,042
87,395
77,869
67,569
56,67
45,365
33,766
21,924
9,867
-2,361
-14,661
-26,908
-39,063
-51,176
-63,231
-75,071
-86,338
-96,615
-105,717
-113,764
-121,013
-127,558
-133,413
-138,82
-144,376
-150,888
-158,964
-168,535
-178,888
-189,488
-199,918
-209,392
-216,932
-221,298
-221,127
-216,045
-206,856
-194,326
-179,541
-164,286
-150,031
-138,379
-131,405
-130,165
-134,556
-144,428
-158,607
-174,866
-191,744
-207,894
-221,486
-231,486
-237,392
-238,585
-235,766
-230,718
-224,451
-217,742
-211,527
-206,188
-202,192
-200,305
-200,33
-201,343
-202,852
-204,503
-206,071
-207,699
-209,297
-210,521
-211,408
-212,262
-213,277
-214,627
-216,326
-218,187
-220,126
-222,148
-224,22
-226,301
-228,339
-230,252
-232,003
-233,601
-235,039
-236,297
-237,332
-238,078
-238,487
-238,544
-238,262
-237,68
-236,848
-235,831
-234,677
-233,427
-232,126
-230,81
-229,514
-228,27
-227,105
-226,042
-225,119
-224,384
-223,872
-223,61
-223,595
-223,803
-224,203
-224,755
-225,437
-226,231
-227,103
-228,009
-228,896
-229,717
-230,458
-231,14
-231,79
-232,441
-233,101
-233,798
-234,626
-235,628
-236,777
-237,95
-238,863
-239,255
-239,042
-238,229
-236,886
-235,334
-233,994
-233,481
-234,75
-238,624
-245,636
-255,971
-269,276
-284,567
-300,541
-315,488
-327,332
-334,291
-334,758
-327,733
-313,284
-292,423
-267,049
-239,876
-213,8
-191,25
-174,664
-165,84
-165,455
-173,385
-188,101
-206,846
-226,945
-246,308
-262,844
-274,997
-281,831
-282,645
-278,112
-270,166
-260,514
-250,372
-240,795
-232,394
-225,697
-221,467
-219,623
-219,251
-219,615
-220,212
-220,755
-221,309
-221,816
-221,939
-221,634
-221,162
-220,718
-220,478
-220,484
-220,58
-220,691
-220,845
-221,037
-221,237
-221,411
-221,494
-221,456
-221,319
-221,095
-220,792
-220,415
-219,95
-219,39
-218,74
-218,007
-217,195
-216,308
-215,339
-214,282
-213,128
-211,869
-210,499
-209,014
-207,412
-205,69
-203,849
-201,89
-199,821
-197,647
-195,376
-193,015
-190,57
-188,05
-185,466
-182,826
-180,143
-177,43
-174,7
-171,965
-169,236
-166,519
-163,819
-161,142
-158,496
-155,889
-153,326
-150,808
-148,337
-145,913
-143,542
-141,228
-138,968
-136,756
-134,581
-132,434
-130,31
-128,208
-126,12
-124,041
-121,959
-119,856
-117,725
-115,565
-113,378
-111,182
-108,978
-106,744
-104,46
-102,105
-99,66
-97,154
-94,595
-91,927
-89,167
-86,402
-83,788
-81,651
-80,265
-79,636
-79,715
-80,47
-81,67
-83,012
-83,979
-83,53
-80,727
-75,31
-67,363
-57,287
-45,968
-34,319
-23,558
-15,739
-12,715
-15,256
-23,36
-36,186
-52,035
-69,153
-85,434
-97,949
-104,099
-102,515
-92,825
-75,669
-52,543
-25,054
4,815
34,536
62,056
86,404
107,507
125,796
141,885
156,253
169,564
182,63
195,501
207,077
215,349
218,209
213,93
201,242
178,887
145,579
101,136
46,858
-14,801
-80,873
-148,478
-215,008
-277,574
-332,881
-378,649
-413,868
-438,491
-453,363
-459,613
-458,374
-451,401
-440,995
-428,759
-415,686
-402,384
-388,879
-375,109
-360,942
-345,805
-328,735
-308,992
-286,045
-259,357
-229,609
-198,474
-166,777
-134,113
-96,424
-47,421
14,675
85,296
152,265
201,227
226,237
231,639
230,323
235,539
252,762
279,688
309,207
336,067
359,058
379,336
399,137
418,862
437,715
455,234
470,94
484,679
496,62
506,749
515,167
522,335
528,569
533,976
538,601
542,38
545,28
547,383
548,795
549,519
549,496
548,657
546,965
544,486
541,396
537,928
534,196
530,414
527,144
524,822
523,562
523,408
524,039
526,075
531,735
542,108
555,596
566,158
565,383
548,298
518,19
489,403
477,047
490,53
528,289
571,714
604,123
615,548
603,363
581,854
562,511
550,604
549,993
554,05
557,643
560,153
559,67
557,796
556,096
553,924
551,458
548,717
545,419
541,823
538,172
534,484
530,836
527,312
523,89
520,515
517,18
513,869
510,564
507,283
503,993
500,653
497,248
493,764
490,226
486,616
482,823
478,844
474,786
470,767
467
463,536
460,146
456,753
453,448
450,099
446,527
442,449
437,277
430,883
423,763
416,24
408,609
401,399
394,936
389,818
387,134
387,305
390,044
395,073
401,83
409,71
418,58
427,79
436,025
442,57
447,201
449,586
449,708
447,5
442,01
434,247
427,412
421,778
416,677
409,921
395,656
376,048
358,719
349,458
357,026
381,651
417,165
461,491
508,948
555,067
593,27
611,673
604,257
570,304
521,381
476,815
449,439
447,412
465,589
489,773
510,971
522,156
523,552
521,997
520,492
520,669
522,786
524,656
526,424
528,202
528,273
526,539
524,016
525,522
538,696
565,131
600,315
633,849
651,116
645,583
619,547
579,049
537,883
508,974
497,612
508,011
534,987
565,482
591,624
606,76
610,091
608,863
607,089
606,728
608,56
610,396
611,506
612,495
613,593
615,207
617,483
620,301
623,565
627,097
630,704
634,178
637,444
640,622
643,804
647,029
650,327
653,686
657,103
660,619
664,237
667,922
671,648
675,39
679,133
682,884
686,643
690,406
694,17
697,929
701,68
705,424
709,16
712,894
716,628
720,368
724,117
727,875
731,638
735,394
739,119
742,783
746,353
749,797
753,078
756,156
758,983
761,514
763,714
765,549
766,994
768,014
768,568
768,629
768,199
767,317
766,065
764,541
762,82
760,978
759,137
757,353
755,632
753,919
752,007
749,678
746,82
743,367
739,312
734,944
730,692
727,019
724,639
724,129
725,811
729,849
735,9
742,826
749,062
752,943
752,62
746,613
733,727
712,951
684,302
649,05
609,273
567,356
525,607
485,81
449,648
418,849
394,142
375,131
360,522
348,55
337,878
327,802
317,632
306,539
294,167
280,639
266,739
253,746
242,394
232,865
225,177
219,148
214,593
211,51
209,611
208,397
207,787
207,795
208,729
211,464
216,606
224,263
234,301
245,998
258,155
269,823
279,715
286,071
287,513
282,99
272,218
256,367
237,424
217,44
198,859
184,097
175,236
174,373
182,573
199,186
222,378
249,517
277,518
303,308
323,954
336,63
339,267
332,524
318,284
297,713
273,966
248,547
224,032
209,824
210,24
226,879
257,211
283,88
297,429
294,637
280,244
289,184
315,691
293,133
229,528
238,434
314,565
343,548
-625,897
-1970,405
-2350,803
-2467,708
-2549,237
-2914,337
-3291,806
-3355,073
-3136,167
-2849,581
-2597,517
-2371,946
-2192,407
-2092,637
-2062,197
-2061,157
-2050,743
-2010,955
-1938,64
-1846,897
-1755,832
-1673,719
-1605,158
-1552,08
-1514,485
-1503,013
-1522,012
-1564,291
-1613,191
-1635,797
-1604,305
-1506,665
-1350,308
-1165,86
-992,987
-867,96
-807,318
-806,341
-839,478
-868,93
-871,722
-837,985
-777,421
-717,308
-674,864
-660,169
-672,354
-697,217
-725,726
-752,96
-776,815
-799,976
-822,557
-842,037
-856,252
-863,524
-863,577
-857,152
-845,038
-828,013
-807,214
-784,482
-761,64
-739,745
-719,329
-700,567
-683,361
-667,643
-653,071
-638,796
-624,088
-608,608
-592,269
-575,269
-557,908
-540,403
-523,075
-506,397
-490,714
-476,229
-463,006
-450,929
-439,855
-429,663
-420,205
-411,314
-402,849
-394,678
-386,686
-378,789
-370,903
-362,942
-354,823
-346,462
-337,787
-328,733
-319,266
-309,387
-299,112
-288,474
-277,513
-266,267
-254,782
-243,112
-231,307
-219,416
-207,485
-195,551
-183,655
-171,836
-160,133
-148,584
-137,222
-126,065
-115,13
-104,431
-93,981
-83,802
-73,915
-64,34
-55,089
-46,167
-37,574
-29,312
-21,378
-13,77
-6,481
0,505
7,207
13,64
19,812
25,736
31,431
36,935
42,302
47,575
52,778
57,917
62,981
67,957
72,826
77,556
82,099
86,389
90,362
93,972
97,183
99,959
102,253
103,993
105,093
105,481
105,115
103,973
102,049
99,342
95,868
91,664
86,798
81,359
75,423
69,044
62,263
55,122
47,67
39,979
32,127
24,175
16,172
8,151
0,144
-7,821
-15,73
-23,59
-31,434
-39,307
-47,238
-55,238
-63,308
-71,446
-79,652
-87,938
-96,309
-104,76
-113,285
-121,876
-130,525
-139,228
-147,972
-156,73
-165,467
-174,142
-182,723
-191,189
-199,522
-207,705
-215,725
-223,567
-231,224
-238,691
-245,966
-253,042
-259,911
-266,566
-273,002
-279,218
-285,216
-290,999
-296,567
-301,92
-307,058
-311,982
-316,691
-321,183
-325,455
-329,503
-333,325
-336,918
-340,281
-343,414
-346,316
-348,987
-351,425
-353,632
-355,607
-357,351
-358,862
-360,142
-361,189
-362,004
-362,587
-362,938
-363,058
-362,947
-362,606
-362,034
-361,234
-360,204
-358,948
-357,465
-355,759
-353,83
-351,681
-349,316
-346,738
-343,951
-340,959
-337,77
-334,388
-330,821
-327,076
-323,163
-319,089
-314,865
-310,5
-306,005
-301,39
-296,668
-291,851
-286,95
-281,978
-276,948
-271,873
-266,767
-261,643
-256,516
-251,399
-246,307
-241,253
-236,252
-231,316
-226,46
-221,698
-217,041
-212,503
-208,097
-203,832
-199,722
-195,776
-192,003
-188,414
-185,015
-181,813
-178,814
-176,023
-173,444
-171,08
-168,933
-167,003
-165,292
-163,798
-162,521
-161,457
-160,604
-159,958
-159,515
-159,268
-159,212
-159,34
-159,645
-160,118
-160,751
-161,535
-162,461
-163,519
-164,699
-165,989
-167,38
-168,86
-170,416
-172,039
-173,716
-175,436
-177,187
-178,959
-180,74
-182,521
-184,291
-186,041
-187,76
-189,441
-191,073
-192,649
-194,161
-195,6
-196,961
-198,235
-199,418
-200,504
-201,487
-202,363
-203,129
-203,78
-204,315
-204,731
-205,026
-205,199
-205,25
-205,179
-204,986
-204,673
-204,242
-203,695
-203,034
-202,264
-201,388
-200,409
-199,332
-198,161
-196,901
-195,557
-194,135
-192,639
-191,076
-189,451
-187,771
-186,041
-184,269
-182,458
-180,615
-178,746
-176,854
-174,945
-173,022
-171,088
-169,145
-167,196
-165,245
-163,291
-161,337
-159,384
-157,433
-155,485
-153,541
-151,6
-149,661
-147,72
-145,777
-143,828
-141,869
-139,895
-137,901
-135,88
-133,827
-131,738
-129,605
-127,422
-125,179
-122,865
-120,472
-117,999
-115,441
-112,801
-110,084
-107,294
-104,446
-101,557
-98,643
-95,716
-92,787
-89,861
-86,945
-84,048
-81,175
-78,336
-75,534
-72,758
-70
-67,245
-64,469
-61,646
-58,743
-55,715
-52,526
-49,156
-45,587
-41,824
-37,871
-33,738
-29,445
-25,015
-20,482
-15,894
-11,301
-6,757
-2,325
1,94
5,977
9,703
13,055
15,986
18,458
20,463
22,006
23,096
23,753
24,009
23,9
23,473
22,775
21,844
20,703
19,353
17,802
16,071
14,196
12,217
10,153
7,987
5,677
3,171
0,421
-2,592
-5,892
-9,538
-13,487
-17,592
-21,579
-24,997
-27,417
-28,55
-28,194
-26,198
-22,701
-18,017
-12,535
-6,986
-2,052
1,866
4,545
6,124
7,509
9,961
14,616
22,955
36,386
56,026
83,029
117,802
159,25
205,543
254,884
305,127
354,122
399,493
437,994
466,902
485,159
492,483
488,781
474,118
448,431
412,592
369,247
321,329
270,95
220,021
170,378
124,251
84,569
53,216
30,315
15,279
7,408
5,78
9,421
16,667
24,897
32,196
37,73
41,191
42,722
42,612
41,102
38,905
37,283
37,067
38,589
41,897
46,667
52,582
59,422
66,781
74,14
81,19
87,787
93,913
99,715
105,298
110,7
115,993
121,235
126,442
131,62
136,752
141,796
146,727
151,55
156,282
160,938
165,52
170,018
174,423
178,724
182,914
186,999
190,992
194,929
198,865
202,847
206,924
211,139
215,537
220,153
225,008
230,116
235,486
241,125
247,039
253,23
259,693
266,416
273,38
280,551
287,875
295,306
302,8
310,314
317,805
325,231
332,549
339,727
346,744
353,579
360,218
366,65
372,867
378,863
384,636
390,196
395,569
400,783
405,865
410,842
415,739
420,582
425,412
430,265
435,159
440,109
445,117
450,18
455,287
460,432
465,596
470,742
475,811
480,725
485,393
489,731
493,659
497,093
499,926
502,052
503,379
503,836
503,369
501,938
499,509
496,043
491,521
485,963
479,417
471,971
463,738
454,823
445,333
435,391
425,14
414,741
404,353
394,1
384,09
374,423
365,196
356,527
348,508
341,191
334,603
328,729
323,535
318,991
315,067
311,701
308,819
306,327
304,12
302,126
300,292
298,563
296,881
295,172
293,371
291,445
289,378
287,172
284,837
282,378
279,8
277,135
274,419
271,701
269,036
266,457
263,977
261,617
259,391
257,321
255,424
253,7
252,137
250,723
249,443
248,284
247,234
246,265
245,346
244,441
243,514
242,535
241,486
240,343
239,087
237,702
236,171
234,484
232,638
230,626
228,44
226,072
223,515
220,767
217,829
214,702
211,388
207,888
204,204
200,341
196,301
192,088
187,705
183,157
178,447
173,581
168,568
163,416
158,135
152,737
147,233
141,635
135,957
130,212
124,415
118,578
112,716
106,843
100,974
95,122
89,301
83,526
77,81
72,167
66,609
61,148
55,795
50,562
45,459
40,493
35,675
31,01
26,506
22,168
18,002
14,01
10,196
6,562
3,109
-0,165
-3,259
-6,176
-8,919
-11,491
-13,898
-16,144
-18,236
-20,179
-21,98
-23,647
-25,186
-26,606
-27,915
-29,119
-30,228
-31,249
-32,189
-33,058
-33,861
-34,607
-35,301
-35,952
-36,564
-37,142
-37,693
-38,22
-38,727
-39,218
-39,695
-40,16
-40,614
-41,06
-41,496
-41,923
-42,341
-42,748
-43,142
-43,523
-43,886
-44,231
-44,555
-44,854
-45,126
-45,369
-45,579
-45,753
-45,89
-45,986
-46,04
-46,05
-46,014
-45,931
-45,799
-45,62
-45,391
-45,116
-44,793
-44,427
-44,018
-43,571
-43,089
-42,576
-42,038
-41,479
-40,906
-40,325
-39,742
-39,164
-38,599
-38,054
-37,537
-37,055
-36,617
-36,229
-35,9
-35,638
-35,449
-35,341
-35,321
-35,395
-35,57
-35,85
-36,242
-36,749
-37,375
-38,124
-38,997
-39,995
-41,119
-42,368
-43,738
-45,226
-46,828
-48,537
-50,346
-52,249
-54,237
-56,3
-58,431
-60,618
-62,854
-65,127
-67,426
-69,74
-72,056
-74,36
-76,638
-78,875
-81,057
-83,167
-85,191
-87,113
-88,919
-90,597
-92,133
-93,513
-94,718
-95,738
-96,565
-97,196
-97,628
-97,865
-97,913
-97,782
-97,492
-97,06
-96,502
-95,829
-95,05
-94,173
-93,204
-92,155
-91,037
-89,853
-88,597
-87,261
-85,832
-84,294
-82,63
-80,81
-78,795
-76,553
-74,068
-71,335
-68,361
-65,158
-61,745
-58,147
-54,393
-50,523
-46,585
-42,629
-38,711
-34,89
-31,225
-27,794
-24,679
-21,952
-19,662
-17,835
-16,484
-15,611
-15,203
-15,237
-15,684
-16,51
-17,688
-19,201
-21,026
-23,143
-25,523
-28,116
-30,849
-33,662
-36,532
-39,466
-42,497
-45,673
-49,006
-52,52
-56,286
-60,263
-64,319
-68,247
-71,681
-74,293
-76,012
-76,774
-76,512
-75,439
-73,736
-71,651
-69,816
-68,561
-67,6
-66,602
-65,023
-61,992
-57,034
-49,567
-38,462
-23,149
-3,875
18,936
44,457
71,759
100,627
130,597
160,516
189,548
217,401
244,031
269,445
293,049
313,301
328,853
338,655
341,533
336,303
321,201
296,048
263,507
224,994
180,944
130,593
69,936
2,127
-62,512
-114,537
-142,959
-146,464
-135,03
-117,088
-101,65
-92,67
-86,381
-80,885
-74,949
-68,407
-63,935
-62,498
-63,581
-66,382
-69,199
-71,066
-71,937
-71,789
-70,832
-69,372
-67,634
-66,017
-64,992
-64,776
-65,384
-66,738
-68,636
-70,91
-73,428
-76,004
-78,453
-80,624
-82,382
-83,66
-84,437
-84,686
-84,385
-83,523
-82,086
-80,093
-77,584
-74,592
-71,154
-67,304
-63,069
-58,488
-53,6
-48,446
-43,066
-37,489
-31,73
-25,803
-19,72
-13,486
-7,114
-0,604
6,049
12,847
19,791
26,882
34,112
41,471
48,953
56,543
64,225
71,976
79,761
87,544
95,3
103,006
110,645
118,207
125,677
133,042
140,293
147,412
154,381
161,189
167,814
174,241
180,469
186,501
192,362
198,081
203,662
209,098
214,367
219,428
224,242
228,763
232,929
236,699
240,04
242,932
245,371
247,345
248,821
249,756
250,083
249,722
248,625
246,755
244,098
240,669
236,491
231,613
226,11
220,034
213,42
206,283
198,613
190,42
181,748
172,648
163,209
153,536
143,727
133,886
124,105
114,442
104,946
95,636
86,505
77,57
68,869
60,46
52,429
44,835
37,716
31,098
24,98
19,335
14,126
9,288
4,761
0,51
-3,488
-7,236
-10,722
-13,952
-16,945
-19,73
-22,361
-24,876
-27,303
-29,674
-32
-34,275
-36,483
-38,579
-40,522
-42,292
-43,875
-45,274
-46,497
-47,548
-48,429
-49,148
-49,7
-50,083
-50,297
-50,34
-50,218
-49,945
-49,543
-49,045
-48,485
-47,887
-47,271
-46,653
-46,042
-45,451
-44,885
-44,347
-43,84
-43,37
-42,942
-42,564
-42,241
-41,975
-41,766
-41,614
-41,516
-41,47
-41,476
-41,533
-41,641
-41,8
-42,011
-42,278
-42,603
-42,986
-43,427
-43,926
-44,481
-45,09
-45,752
-46,463
-47,219
-48,018
-48,857
-49,732
-50,642
-51,582
-52,55
-53,544
-54,562
-55,601
-56,659
-57,734
-58,823
-59,925
-61,038
-62,16
-63,29
-64,425
-65,566
-66,709
-67,855
-69,003
-70,149
-71,295
-72,438
-73,578
-74,714
-75,846
-76,973
-78,098
-79,22
-80,342
-81,466
-82,593
-83,726
-84,867
-86,019
-87,184
-88,364
-89,563
-90,781
-92,023
-93,289
-94,583
-95,907
-97,263
-98,653
-100,079
-101,543
-103,046
-104,588
-106,172
-107,799
-109,469
-111,183
-112,942
-114,747
-116,598
-118,496
-120,44
-122,429
-124,464
-126,543
-128,664
-130,826
-133,026
-135,262
-137,532
-139,833
-142,162
-144,516
-146,892
-149,286
-151,697
-154,119
-156,55
-158,987
-161,426
-163,865
-166,301
-168,732
-171,156
-173,572
-175,979
-178,374
-180,756
-183,124
-185,477
-187,813
-190,131
-192,429
-194,708
-196,965
-199,201
-201,414
-203,605
-205,774
-207,919
-210,04
-212,137
-214,21
-216,258
-218,281
-220,28
-222,253
-224,203
-226,128
-228,03
-229,908
-231,76
-233,586
-235,384
-237,151
-238,883
-240,576
-242,226
-243,828
-245,379
-246,874
-248,309
-249,68
-250,984
-252,219
-253,381
-254,467
-255,471
-256,388
-257,212
-257,938
-258,562
-259,077
-259,479
-259,762
-259,925
-259,968
-259,891
-259,69
-259,361
-258,898
-258,297
-257,56
-256,691
-255,694
-254,579
-253,36
-252,061
-250,713
-249,342
-247,963
-246,588
-245,218
-243,856
-242,506
-241,169
-239,848
-238,541
-237,248
-235,97
-234,719
-233,488
-232,264
-231,017
-229,699
-228,28
-226,751
-225,115
-223,392
-221,614
-219,819
-218,061
-216,404
-214,901
-213,594
-212,51
-211,656
-211,049
-210,71
-210,678
-211,011
-211,742
-212,882
-214,429
-216,355
-218,61
-221,122
-223,799
-226,53
-229,232
-231,848
-234,348
-236,735
-239,033
-241,265
-243,443
-245,565
-247,626
-249,647
-251,696
-253,837
-256,151
-258,73
-261,627
-264,946
-268,815
-273,185
-277,882
-282,7
-287,331
-291,617
-295,624
-299,216
-302,09
-304,173
-305,481
-306,093
-306,229
-305,543
-303,2
-298,765
-292,201
-283,454
-272,446
-258,872
-242,226
-222,886
-201,898
-179,821
-156,634
-131,969
-105,541
-77,677
-49,189
-20,276
9,351
39,291
68,245
94,072
114,5
127,948
133,458
129,854
115,717
90,613
55,422
12,303
-35,834
-86,204
-136,28
-183,152
-223,514
-255,004
-276,543
-288,214
-291,168
-286,886
-276,922
-263,457
-249,225
-236,281
-225,857
-218,521
-214,065
-212,065
-212,091
-213,263
-214,389
-214,72
-213,92
-211,952
-209,153
-205,838
-202,227
-198,685
-195,625
-193,249
-191,608
-190,616
-190,039
-189,689
-189,428
-189,096
-188,549
-187,658
-186,3
-184,379
-181,846
-178,667
-174,819
-170,302
-165,116
-159,293
-152,894
-146,006
-138,724
-131,125
-123,258
-115,16
-106,861
-98,403
-89,83
-81,19
-72,508
-63,793
-55,042
-46,245
-37,379
-28,391
-19,191
-9,655
0,341
10,888
22,042
33,841
46,319
59,513
73,449
88,148
103,619
119,868
136,909
154,747
173,359
192,684
212,619
233,015
253,724
274,617
295,571
316,478
337,221
357,681
377,758
397,348
416,344
434,625
452,046
468,465
483,777
497,902
510,787
522,418
532,788
541,894
549,753
556,388
561,823
566,091
569,211
571,201
572,102
571,974
570,889
568,923
566,134
562,572
558,302
553,379
547,847
541,754
535,116
527,954
520,305
512,21
503,725
494,917
485,847
476,575
467,185
457,767
448,415
439,222
430,246
421,534
413,141
405,117
397,521
390,405
383,795
377,703
372,133
367,078
362,514
358,404
354,674
351,227
347,974
344,833
341,745
338,672
335,571
332,401
329,134
325,746
322,229
318,588
314,821
310,928
306,931
302,855
298,754
294,698
290,745
286,941
283,324
279,913
276,727
273,781
271,077
268,607
266,361
264,324
262,487
260,844
259,378
258,069
256,889
255,804
254,784
253,809
252,859
251,919
250,978
250,025
249,057
248,074
247,078
246,065
245,033
243,975
242,888
241,767
240,612
239,419
238,186
236,906
235,577
234,193
232,749
231,24
229,66
228,002
226,259
224,426
222,501
220,48
218,36
216,139
213,815
211,387
208,855
206,218
203,476
200,629
197,677
194,621
191,463
188,205
184,849
181,398
177,855
174,224
170,509
166,716
162,849
158,915
154,92
150,87
146,772
142,633
138,461
134,262
130,045
125,815
121,582
117,351
113,13
108,924
104,742
100,589
96,472
92,395
88,365
84,387
80,466
76,606
72,812
69,087
65,435
61,858
58,36
54,942
51,606
48,353
45,184
42,098
39,096
36,176
33,339
30,582
27,903
25,3
22,771
20,314
17,926
15,605
13,347
11,151
9,014
6,934
4,907
2,931
1,002
-0,881
-2,723
-4,527
-6,294
-8,03
-9,738
-11,419
-13,079
-14,718
-16,341
-17,951
-19,55
-21,14
-22,726
-24,308
-25,889
-27,472
-29,059
-30,651
-32,249
-33,856
-35,472
-37,101
-38,745
-40,405
-42,085
-43,788
-45,515
-47,271
-49,058
-50,877
-52,732
-54,624
-56,553
-58,522
-60,529
-62,573
-64,655
-66,772
-68,923
-71,107
-73,321
-75,563
-77,831
-80,124
-82,439
-84,773
-87,124
-89,485
-91,853
-94,223
-96,591
-98,95
-101,292
-103,611
-105,897
-108,145
-110,346
-112,488
-114,559
-116,54
-118,421
-120,194
-121,854
-123,401
-124,836
-126,163
-127,395
-128,552
-129,651
-130,705
-131,724
-132,708
-133,662
-134,599
-135,532
-136,478
-137,437
-138,401
-139,356
-140,288
-141,168
-141,957
-142,599
-143,021
-143,166
-142,999
-142,501
-141,668
-140,501
-138,997
-137,153
-134,984
-132,528
-129,832
-126,952
-123,949
-120,897
-117,901
-115,094
-112,622
-110,604
-109,122
-108,232
-107,971
-108,368
-109,444
-111,211
-113,652
-116,723
-120,378
-124,566
-129,228
-134,304
-139,698
-145,276
-150,909
-156,5
-161,99
-167,344
-172,53
-177,508
-182,243
-186,733
-191,028
-195,181
-199,226
-203,174
-206,998
-210,69
-214,323
-217,867
-221,166
-224,039
-226,231
-227,634
-228,371
-228,399
-227,475
-225,543
-222,662
-218,935
-214,642
-209,541
-202,899
-194,4
-184,108
-172,039
-158,202
-142,369
-124,097
-103,791
-82,363
-60,134
-36,909
-12,156
14,559
42,957
72,455
103,062
134,653
166,277
196,167
221,633
240,187
250,285
250,577
239,634
216,98
183,275
140,405
91,659
40,353
-10,714
-58,442
-99,621
-132,113
-154,873
-168,007
-172,895
-171,123
-164,184
-154,169
-143,546
-134,095
-126,862
-122,222
-119,799
-119,132
-119,853
-121,214
-122,165
-122,047
-120,589
-117,826
-114,169
-109,992
-105,525
-101,116
-97,165
-93,902
-91,427
-89,711
-88,568
-87,833
-87,39
-87,093
-86,822
-86,479
-85,96
-85,184
-84,083
-82,6
-80,69
-78,323
-75,471
-72,123
-68,275
-63,941
-59,156
-53,962
-48,411
-42,55
-36,413
-30,033
-23,438
-16,659
-9,746
-2,735
4,345
11,461
18,587
25,695
32,737
39,688
46,544
53,313
60,022
66,702
73,356
79,987
86,59
93,165
99,725
106,283
112,836
119,391
125,955
132,554
139,249
146,081
153,064
160,202
167,477
174,868
182,39
190,047
197,825
205,71
213,665
221,66
229,681
237,704
245,684
253,549
261,193
268,516
275,441
281,882
287,757
292,969
297,401
300,962
303,595
305,254
305,911
305,534
304,087
301,549
297,93
293,268
287,621
281,051
273,622
265,419
256,551
247,152
237,363
227,295
217,034
206,653
196,218
185,798
175,458
165,247
155,197
145,33
135,664
126,221
117,011
108,028
99,242
90,607
82,085
73,655
65,31
57,055
48,895
40,834
32,887
25,079
17,436
9,983
2,739
-4,283
-11,066
-17,583
-23,805
-29,697
-35,232
-40,393
-45,169
-49,552
-53,541
-57,136
-60,344
-63,179
-65,657
-67,788
-69,585
-71,056
-72,214
-73,073
-73,65
-73,96
-74,021
-73,846
-73,453
-72,858
-72,077
-71,127
-70,022
-68,774
-67,4
-65,914
-64,332
-62,668
-60,94
-59,16
-57,343
-55,505
-53,659
-51,817
-49,991
-48,191
-46,428
-44,712
-43,05
-41,451
-39,921
-38,468
-37,097
-35,815
-34,626
-33,533
-32,542
-31,655
-30,874
-30,202
-29,639
-29,187
-28,844
-28,609
-28,483
-28,462
-28,545
-28,728
-29,009
-29,385
-29,851
-30,404
-31,039
-31,752
-32,537
-33,391
-34,307
-35,282
-36,31
-37,386
-38,505
-39,663
-40,853
-42,072
-43,313
-44,573
-45,846
-47,128
-48,414
-49,699
-50,98
-52,252
-53,512
-54,757
-55,984
-57,19
-58,373
-59,531
-60,661
-61,762
-62,833
-63,873
-64,879
-65,852
-66,791
-67,696
-68,565
-69,4
-70,2
-70,965
-71,697
-72,395
-73,06
-73,693
-74,294
-74,865
-75,407
-75,919
-76,404
-76,862
-77,294
-77,701
-78,083
-78,443
-78,779
-79,093
-79,384
-79,654
-79,9
-80,125
-80,326
-80,503
-80,657
-80,786
-80,889
-80,967
-81,018
-81,042
-81,037
-81,002
-80,935
-80,837
-80,704
-80,537
-80,334
-80,093
-79,816
-79,5
-79,146
-78,754
-78,324
-77,855
-77,349
-76,804
-76,223
-75,605
-74,951
-74,262
-73,54
-72,786
-72,003
-71,191
-70,354
-69,494
-68,612
-67,713
-66,797
-65,868
-64,93
-63,985
-63,036
-62,088
-61,144
-60,208
-59,285
-58,377
-57,489
-56,622
-55,78
-54,964
-54,174
-53,411
-52,674
-51,963
-51,28
-50,623
-49,992
-49,387
-48,808
-48,256
-47,73
-47,231
-46,756
-46,3
-45,861
-45,435
-45,018
-44,604
-44,189
-43,766
-43,331
-42,884
-42,421
-41,937
-41,425
-40,875
-40,281
-39,639
-38,952
-38,218
-37,443
-36,635
-35,809
-34,99
-34,203
-33,464
-32,778
-32,142
-31,556
-31,018
-30,528
-30,085
-29,677
-29,289
-28,915
-28,55
-28,189
-27,815
-27,391
-26,866
-26,197
-25,36
-24,353
-23,191
-21,895
-20,497
-19,041
-17,579
-16,182
-14,908
-13,793
-12,859
-12,119
-11,596
-11,335
-11,396
-11,824
-12,641
-13,845
-15,413
-17,308
-19,467
-21,812
-24,244
-26,663
-28,992
-31,197
-33,278
-35,253
-37,153
-38,979
-40,722
-42,396
-44,047
-45,753
-47,596
-49,652
-51,981
-54,681
-57,896
-61,687
-65,977
-70,535
-75,056
-79,351
-83,395
-87,171
-90,494
-93,2
-95,269
-96,928
-98,473
-99,757
-100,152
-98,836
-95,335
-89,495
-81,097
-69,597
-54,358
-35,314
-13,082
11,327
37,47
65,615
95,959
128,32
162,115
196,809
232,312
268,64
304,753
338,499
367,523
389,532
402,839
406,21
398,185
377,658
345,008
302,042
251,419
196,371
139,893
84,721
34,034
-9,063
-42,602
-65,818
-78,927
-82,977
-79,247
-68,971
-53,901
-36,412
-18,497
-1,646
12,967
24,842
33,832
39,556
41,83
41,277
38,546
34,375
29,821
25,397
21,286
17,994
16,002
15,338
15,948
17,476
19,148
20,624
21,835
22,592
22,783
22,395
21,438
20,162
19,017
18,242
17,93
18,139
18,838
20,035
21,757
23,948
26,512
29,382
32,512
35,892
39,535
43,428
47,536
51,818
56,237
60,776
65,429
70,189
75,053
80,016
85,077
90,242
95,51
100,88
106,346
111,901
117,538
123,255
129,042
134,893
140,796
146,732
152,674
158,593
164,456
170,235
175,905
181,446
186,85
192,109
197,215
202,156
206,91
211,459
215,785
219,874
223,716
227,311
230,666
233,797
236,724
239,458
241,994
244,31
246,367
248,116
249,498
250,469
250,998
251,055
250,62
249,669
248,181
246,125
243,467
240,163
236,159
231,42
225,93
219,702
212,774
205,209
197,083
188,471
179,433
170,03
160,31
150,324
140,119
129,751
119,274
108,76
98,292
87,942
77,772
67,826
58,123
48,668
39,449
30,459
21,693
13,154
4,851
-3,204
-10,994
-18,506
-25,724
-32,642
-39,266
-45,601
-51,653
-57,42
-62,893
-68,058
-72,897
-77,394
-81,536
-85,316
-88,735
-91,795
-94,508
-96,888
-98,953
-100,719
-102,202
-103,416
-104,376
-105,098
-105,602
-105,907
-106,035
-106,008
-105,848
-105,576
-105,213
-104,775
-104,281
-103,744
-103,177
-102,593
-102,005
-101,422
-100,857
-100,321
-99,823
-99,371
-98,976
-98,642
-98,378
-98,186
-98,071
-98,035
-98,079
-98,204
-98,41
-98,694
-99,056
-99,492
-99,998
-100,571
-101,206
-101,898
-102,642
-103,432
-104,263
-105,128
-106,022
-106,94
-107,875
-108,823
-109,779
-110,737
-111,694
-112,646
-113,588
-114,516
-115,428
-116,319
-117,186
-118,027
-118,839
-119,619
-120,366
-121,077
-121,752
-122,39
-122,989
-123,55
-124,072
-124,556
-125,002
-125,41
-125,783
-126,12
-126,424
-126,695
-126,937
-127,15
-127,336
-127,497
-127,636
-127,753
-127,852
-127,934
-128
-128,052
-128,093
-128,124
-128,146
-128,161
-128,17
-128,176
-128,179
-128,182
-128,186
-128,192
-128,203
-128,219
-128,244
-128,278
-128,324
-128,383
-128,457
-128,548
-128,659
-128,79
-128,945
-129,123
-129,328
-129,559
-129,82
-130,11
-130,431
-130,784
-131,17
-131,589
-132,044
-132,534
-133,061
-133,626
-134,229
-134,872
-135,556
-136,282
-137,05
-137,861
-138,716
-139,615
-140,56
-141,549
-142,582
-143,66
-144,78
-145,943
-147,145
-148,386
-149,663
-150,974
-152,316
-153,688
-155,087
-156,511
-157,957
-159,423
-160,907
-162,406
-163,918
-165,439
-166,966
-168,496
-170,024
-171,546
-173,057
-174,552
-176,024
-177,47
-178,882
-180,255
-181,584
-182,862
-184,086
-185,251
-186,351
-187,382
-188,338
-189,213
-190,003
-190,704
-191,311
-191,818
-192,221
-192,514
-192,696
-192,762
-192,706
-192,52
-192,195
-191,722
-191,103
-190,341
-189,439
-188,407
-187,256
-186,003
-184,674
-183,292
-181,877
-180,441
-178,991
-177,538
-176,098
-174,692
-173,341
-172,054
-170,827
-169,654
-168,528
-167,428
-166,325
-165,169
-163,894
-162,45
-160,807
-158,953
-156,896
-154,633
-152,16
-149,475
-146,588
-143,525
-140,329
-137,035
-133,677
-130,311
-127,015
-123,899
-121,087
-118,675
-116,725
-115,273
-114,336
-113,93
-114,072
-114,762
-115,978
-117,689
-119,86
-122,476
-125,534
-129,001
-132,827
-136,936
-141,237
-145,669
-150,187
-154,735
-159,284
-163,821
-168,34
-172,875
-177,465
-182,085
-186,71
-191,319
-195,771
-199,88
-203,405
-205,948
-207,173
-206,961
-205,191
-201,773
-196,879
-190,696
-183,484
-175,835
-168,149
-160,326
-152,239
-143,636
-133,778
-122,067
-107,934
-90,398
-68,844
-43,292
-13,658
19,937
56,649
95,835
136,778
178,22
219,258
259,135
296,329
329,163
356,359
376,296
387,622
389,423
380,372
359,672
328,04
287,02
238,672
185,735
130,785
76,655
27,127
-14,435
-46,058
-66,837
-76,954
-77,235
-68,404
-52,074
-31,235
-9,113
11,63
29,22
42,919
52,206
56,305
55,261
50,216
42,914
35,218
28,285
22,483
18,181
15,993
16,163
18,464
22,158
26,174
29,914
33,273
36,189
38,56
40,325
41,477
42,247
43,098
44,302
45,964
48,119
50,727
53,782
57,308
61,27
65,556
70,063
74,69
79,356
84,027
88,671
93,263
97,795
102,265
106,695
111,104
115,509
119,926
124,365
128,832
133,337
137,899
142,547
147,324
152,275
157,428
162,801
168,389
174,169
180,102
186,127
192,187
198,232
204,221
210,125
215,923
221,595
227,12
232,479
237,651
242,617
247,365
251,89
256,2
260,316
264,271
268,118
271,895
275,628
279,334
283,016
286,668
290,277
293,819
297,267
300,586
303,738
306,672
309,33
311,64
313,522
314,891
315,652
315,723
315,039
313,54
311,172
307,901
303,711
298,595
292,565
285,631
277,803
269,116
259,633
249,432
238,61
227,27
215,518
203,467
191,228
178,919
166,669
154,582
142,738
131,215
120,08
109,406
99,286
89,779
80,912
72,698
65,129
58,194
51,885
46,166
40,988
36,284
31,972
27,993
24,311
20,886
17,687
14,667
11,76
8,927
6,152
3,422
0,736
-1,911
-4,528
-7,1
-9,592
-11,962
-14,157
-16,143
-17,905
-19,43
-20,705
-21,719
-22,45
-22,893
-23,059
-22,955
-22,593
-21,981
-21,125
-20,043
-18,767
-17,333
-15,777
-14,128
-12,408
-10,634
-8,826
-7
-5,169
-3,343
-1,524
0,282
2,068
3,826
5,549
7,231
8,872
10,473
12,032
13,548
15,022
16,45
17,833
19,17
20,459
21,698
22,882
24,011
25,085
26,104
27,07
27,983
28,846
29,66
30,428
31,152
31,835
32,477
33,08
33,645
34,174
34,668
35,128
35,554
35,949
36,312
36,646
36,952
37,231
37,485
37,714
37,92
38,104
38,266
38,409
38,532
38,637
38,724
38,793
38,846
38,882
38,902
38,906
38,893
38,863
38,817
38,753
38,671
38,571
38,454
38,319
38,167
38
37,818
37,622
37,413
37,193
36,964
36,725
36,48
36,228
35,971
35,71
35,447
35,182
34,916
34,651
34,388
34,126
33,869
33,615
33,367
33,127
32,894
32,671
32,458
32,259
32,073
31,904
31,752
31,62
31,507
31,416
31,348
31,303
31,281
31,282
31,306
31,353
31,421
31,509
31,616
31,741
31,883
32,039
32,209
32,393
32,588
32,796
33,018
33,252
33,5
33,761
34,036
34,325
34,627
34,94
35,263
35,594
35,932
36,275
36,624
36,979
37,34
37,708
38,084
38,471
38,871
39,288
39,722
40,173
40,646
41,143
41,675
42,247
42,858
43,509
44,194
44,908
45,643
46,386
47,116
47,812
48,458
49,039
49,552
49,999
50,379
50,69
50,929
51,099
51,219
51,312
51,395
51,492
51,622
51,816
52,126
52,598
53,265
54,153
55,257
56,563
58,052
59,7
61,477
63,337
65,213
67,034
68,745
70,303
71,677
72,826
73,68
74,177
74,267
73,919
73,135
71,939
70,361
68,445
66,247
63,839
61,31
58,75
56,215
53,729
51,267
48,813
46,38
43,985
41,666
39,445
37,28
35,118
32,88
30,468
27,836
24,916
21,589
17,857
13,807
9,637
5,784
2,639
0,343
-0,958
-1,184
-0,514
0,936
2,936
4,91
6,569
8,09
9,741
12,032
15,777
21,57
30,112
42,424
59,027
79,888
104,745
133,081
164,25
197,779
232,94
268,501
303,385
336,82
368,206
396,793
421,387
440,425
452,404
456,439
452,041
438,599
415,38
382,217
339,894
290,168
235,576
178,485
120,893
65,245
14,386
-29,166
-63,392
-87,38
-101,544
-106,533
-102,833
-91,52
-74,013
-51,734
-26,607
-0,114
27,245
54,997
82,367
108,676
132,845
153,499
170,195
182,702
190,433
193,128
190,873
184,01
173,776
162,029
149,902
138,139
127,453
118,175
110,542
104,689
100,122
95,925
91,595
86,923
81,87
76,666
71,466
66,361
61,642
57,71
54,794
52,975
52,202
52,285
53,078
54,476
56,342
58,526
60,899
63,363
65,862
68,375
70,884
73,365
75,801
78,185
80,529
82,852
85,176
87,525
89,918
92,379
94,928
97,583
100,355
103,245
106,246
109,35
112,552
115,848
119,228
122,681
126,184
129,727
133,309
136,936
140,613
144,342
148,126
151,972
155,908
159,955
164,124
168,418
172,816
177,287
181,806
186,339
190,845
195,267
199,522
203,517
207,173
210,411
213,156
215,327
216,814
217,522
217,382
216,338
214,366
211,459
207,606
202,811
197,102
190,528
183,169
175,126
166,478
157,303
147,682
137,701
127,477
117,116
106,699
96,294
85,946
75,687
65,56
55,597
45,808
36,185
26,694
17,281
7,921
-1,41
-10,734
-20,076
-29,486
-39
-48,63
-58,377
-68,22
-78,129
-88,086
-98,065
-108,021
-117,901
-127,62
-137,078
-146,198
-154,905
-163,127
-170,788
-177,791
-184,054
-189,519
-194,135
-197,868
-200,697
-202,592
-203,535
-203,532
-202,593
-200,762
-198,113
-194,705
-190,604
-185,89
-180,648
-174,989
-169,023
-162,851
-156,576
-150,303
-144,139
-138,191
-132,559
-127,324
-122,567
-118,343
-114,679
-111,606
-109,139
-107,28
-106,021
-105,335
-105,186
-105,531
-106,319
-107,482
-108,942
-110,619
-112,447
-114,362
-116,302
-118,216
-120,068
-121,828
-123,479
-125,008
-126,408
-127,677
-128,822
-129,856
-130,801
-131,689
-132,562
-133,455
-134,396
-135,408
-136,509
-137,715
-139,036
-140,469
-142,007
-143,64
-145,358
-147,15
-149,005
-150,906
-152,832
-154,761
-156,664
-158,52
-160,313
-162,027
-163,653
-165,182
-166,607
-167,927
-169,146
-170,268
-171,293
-172,226
-173,066
-173,819
-174,49
-175,084
-175,609
-176,069
-176,47
-176,817
-177,113
-177,364
-177,572
-177,74
-177,872
-177,969
-178,036
-178,077
-178,095
-178,096
-178,083
-178,061
-178,033
-178,004
-177,977
-177,955
-177,941
-177,937
-177,947
-177,974
-178,019
-178,085
-178,173
-178,287
-178,426
-178,593
-178,787
-179,01
-179,261
-179,54
-179,848
-180,185
-180,549
-180,941
-181,359
-181,804
-182,274
-182,768
-183,284
-183,822
-184,379
-184,954
-185,545
-186,15
-186,769
-187,4
-188,04
-188,688
-189,342
-190
-190,659
-191,314
-191,963
-192,6
-193,222
-193,824
-194,403
-194,954
-195,476
-195,965
-196,422
-196,842
-197,226
-197,569
-197,87
-198,126
-198,334
-198,491
-198,592
-198,633
-198,611
-198,523
-198,366
-198,136
-197,83
-197,441
-196,963
-196,394
-195,733
-194,981
-194,143
-193,223
-192,233
-191,187
-190,108
-189,014
-187,924
-186,856
-185,826
-184,848
-183,937
-183,103
-182,355
-181,691
-181,097
-180,56
-180,061
-179,579
-179,088
-178,551
-177,925
-177,175
-176,272
-175,192
-173,912
-172,412
-170,686
-168,731
-166,566
-164,242
-161,811
-159,348
-156,919
-154,551
-152,292
-150,227
-148,443
-147,038
-146,086
-145,568
-145,515
-146,091
-147,358
-149,302
-151,744
-154,228
-156,432
-158,38
-160,144
-161,577
-162,62
-163,57
-165,026
-168,088
-173,857
-181,207
-188,579
-196,67
-204,907
-215,149
-229,368
-241,614
-247,856
-243,956
-225,36
-198,274
-168,666
-141,228
-122,485
-111,827
-108,071
-111,293
-119,271
-131,733
-147,759
-164,657
-180,583
-193,228
-200,329
-201,023
-194,972
-182,496
-165,285
-145,097
-123,009
-100,11
-77,369
-55,226
-34
-13,458
7,906
31,466
57,756
87,046
119,255
153,927
190,299
226,712
260,268
288,076
307,972
318,307
317,849
305,6
281,298
246,032
202,292
153,182
101,568
50,002
1,08
-42,435
-78,389
-105,694
-124,403
-135,412
-139,643
-138,027
-131,913
-122,971
-112,637
-102,045
-91,895
-82,517
-74,397
-67,914
-63,052
-59,766
-58,151
-58,13
-59,541
-62,063
-64,987
-67,792
-70,278
-72,101
-72,775
-72,043
-69,814
-66,328
-62,264
-58,066
-53,869
-49,858
-46,218
-43,023
-40,391
-38,251
-36,121
-33,68
-30,746
-27,113
-22,904
-18,323
-13,274
-7,701
-1,896
3,95
9,412
13,85
17,449
20,625
23,442
26,114
29,03
32,411
37,077
44,212
53,77
65,307
78,503
92,562
106,746
120,457
132,326
140,763
145,375
146,16
143,286
137,56
129,714
120,645
112,037
105,507
101,906
101,852
105,733
113,518
125,107
139,907
156,647
174,246
191,983
209,241
225,508
240,287
253,17
264,209
273,881
282,508
290,197
296,953
302,73
307,634
311,772
315,043
317,179
318
317,478
315,697
312,831
308,987
304,246
298,769
292,771
286,446
279,957
273,402
266,806
260,207
253,66
247,195
240,839
234,566
228,284
221,925
215,443
208,773
201,872
194,621
186,821
178,423
169,548
160,418
151,309
142,369
133,475
124,558
115,799
107,2
98,467
88,989
78,005
65,139
50,86
36,277
21,951
8,304
-3,543
-13,508
-21,121
-24,09
-22,767
-15,853
-1,03
16,903
34,473
46,517
45,888
36,374
22,54
8,641
0,475
-4,531
-9,251
-13,882
-19,432
-24,028
-26,35
-27,493
-27,998
-28,332
-28,881
-29,454
-30,152
-31,272
-32,764
-34,31
-35,617
-36,543
-37,095
-37,379
-37,434
-37,215
-36,74
-36,103
-35,398
-34,69
-34,001
-33,309
-32,608
-31,912
-31,233
-30,571
-29,927
-29,298
-28,69
-28,123
-27,611
-27,162
-26,777
-26,449
-26,176
-25,959
-25,8
-25,701
-25,661
-25,681
-25,765
-25,919
-26,149
-26,456
-26,839
-27,294
-27,816
-28,405
-29,058
-29,772
-30,545
-31,375
-32,259
-33,195
-34,182
-35,217
-36,294
-37,408
-38,552
-39,719
-40,905
-42,102
-43,303
-44,5
-45,686
-46,854
-47,998
-49,11
-50,184
-51,211
-52,187
-53,106
-53,964
-54,757
-55,481
-56,136
-56,72
-57,233
-57,676
-58,049
-58,355
-58,596
-58,774
-58,892
-58,953
-58,961
-58,918
-58,829
-58,698
-58,528
-58,325
-58,092
-57,837
-57,564
-57,281
-56,994
-56,71
-56,436
-56,18
-55,948
-55,747
-55,585
-55,466
-55,398
-55,384
-55,43
-55,537
-55,711
-55,951
-56,259
-56,636
-57,08
-57,591
-58,167
-58,806
-59,505
-60,261
-61,072
-61,933
-62,843
-63,798
-64,794
-65,827
-66,892
-67,985
-69,097
-70,224
-71,357
-72,489
-73,611
-74,715
-75,795
-76,843
-77,851
-78,815
-79,726
-80,579
-81,366
-82,081
-82,717
-83,266
-83,723
-84,082
-84,337
-84,484
-84,523
-84,451
-84,268
-83,972
-83,557
-83,022
-82,368
-81,598
-80,719
-79,739
-78,668
-77,521
-76,323
-75,096
-73,863
-72,643
-71,45
-70,294
-69,185
-68,131
-67,144
-66,222
-65,354
-64,524
-63,711
-62,895
-62,057
-61,163
-60,161
-59,005
-57,653
-56,073
-54,242
-52,143
-49,758
-47,083
-44,124
-40,91
-37,493
-33,928
-30,278
-26,601
-22,948
-19,39
-16,018
-12,916
-10,151
-7,786
-5,872
-4,468
-3,634
-3,41
-3,806
-4,806
-6,373
-8,466
-11,044
-14,067
-17,49
-21,252
-25,253
-29,41
-33,666
-37,961
-42,24
-46,414
-50,334
-53,886
-57,028
-59,661
-61,627
-62,684
-62,426
-60,497
-56,78
-51,188
-43,638
-34,242
-23,167
-10,812
1,89
14,047
25,287
35,493
44,869
53,972
63,268
73,657
86,922
104,89
128,844
159,355
196,094
238,242
284,867
334,092
382,872
427,556
464,261
489,938
502,53
500,275
482,252
449,028
402,45
345,708
283,248
219,62
159,27
106,737
65,581
36,579
19,607
15,444
22,483
40,953
70,5
103,233
133,915
156,801
165,335
163,804
156,148
145,874
139,557
136,21
133,895
132,709
130,976
129,82
130,976
133,882
137,643
141,215
143,704
144,998
145,369
144,867
143,317
140,823
137,742
134,378
131,025
127,836
124,786
121,927
119,376
117,188
115,382
113,966
112,911
112,211
111,882
111,922
112,326
113,082
114,17
115,568
117,254
119,204
121,388
123,789
126,395
129,2
132,198
135,385
138,759
142,327
146,104
150,1
154,315
158,747
163,388
168,231
173,267
178,484
183,862
189,368
194,975
200,652
206,372
212,117
217,867
223,597
229,279
234,888
240,403
245,821
251,14
256,353
261,457
266,449
271,334
276,137
280,873
285,543
290,139
294,635
299,001
303,211
307,238
311,044
314,586
317,799
320,613
322,977
324,835
326,134
326,812
326,781
325,968
324,324
321,817
318,434
314,165
308,997
302,922
295,956
288,132
279,497
270,113
260,023
249,276
237,934
226,073
213,795
201,204
188,385
175,412
162,366
149,334
136,418
123,726
111,336
99,315
87,723
76,615
66,054
56,094
46,771
38,105
30,096
22,735
16,017
9,938
4,471
-0,428
-4,822
-8,789
-12,388
-15,67
-18,686
-21,49
-24,136
-26,673
-29,134
-31,538
-33,902
-36,238
-38,556
-40,867
-43,163
-45,428
-47,632
-49,735
-51,711
-53,541
-55,208
-56,696
-57,993
-59,091
-59,995
-60,718
-61,275
-61,675
-61,932
-62,06
-62,078
-62,011
-61,885
-61,733
-61,579
-61,443
-61,345
-61,301
-61,322
-61,421
-61,601
-61,863
-62,208
-62,638
-63,157
-63,767
-64,469
-65,263
-66,147
-67,12
-68,182
-69,332
-70,568
-71,89
-73,297
-74,789
-76,365
-78,027
-79,772
-81,6
-83,506
-85,489
-87,543
-89,665
-91,85
-94,092
-96,386
-98,726
-101,107
-103,523
-105,968
-108,436
-110,922
-113,417
-115,917
-118,413
-120,9
-123,369
-125,813
-128,226
-130,601
-132,929
-135,204
-137,42
-139,568
-141,644
-143,639
-145,548
-147,365
-149,086
-150,704
-152,217
-153,619
-154,909
-156,082
-157,138
-158,073
-158,888
-159,581
-160,153
-160,603
-160,932
-161,142
-161,235
-161,214
-161,081
-160,84
-160,496
-160,051
-159,513
-158,885
-158,173
-157,383
-156,521
-155,593
-154,605
-153,565
-152,477
-151,35
-150,19
-149,003
-147,796
-146,576
-145,348
-144,119
-142,894
-141,678
-140,477
-139,295
-138,137
-137,006
-135,906
-134,84
-133,809
-132,813
-131,853
-130,928
-130,037
-129,179
-128,35
-127,55
-126,776
-126,024
-125,293
-124,58
-123,881
-123,19
-122,502
-121,812
-121,114
-120,4
-119,663
-118,896
-118,09
-117,238
-116,334
-115,37
-114,338
-113,229
-112,031
-110,737
-109,343
-107,849
-106,254
-104,564
-102,786
-100,931
-99,016
-97,056
-95,063
-93,05
-91,023
-88,989
-86,954
-84,927
-82,919
-80,934
-78,967
-77,009
-75,046
-73,062
-71,043
-68,966
-66,801
-64,528
-62,131
-59,61
-56,973
-54,237
-51,428
-48,573
-45,696
-42,838
-40,049
-37,385
-34,912
-32,683
-30,734
-29,112
-27,869
-27,042
-26,66
-26,732
-27,245
-28,178
-29,498
-31,164
-33,139
-35,371
-37,796
-40,361
-43,014
-45,725
-48,508
-51,376
-54,335
-57,413
-60,638
-64,049
-67,701
-71,651
-75,948
-80,648
-85,793
-91,414
-97,533
-104,135
-111,16
-118,5
-125,986
-133,412
-140,569
-147,231
-153,141
-158,044
-161,67
-163,723
-163,939
-162,068
-157,833
-150,957
-141,262
-128,714
-113,466
-95,872
-76,324
-55,172
-32,839
-9,882
13,3
36,617
60,308
84,982
111,201
139,1
168,688
200,039
232,766
265,804
297,45
325,219
346,574
359,63
362,682
354,05
332,844
299,243
254,549
201,344
142,687
81,52
21,224
-34,387
-81,911
-118,854
-143,973
-157,241
-159,159
-150,726
-134,01
-112,06
-88,308
-65,852
-46,721
-32,181
-23,375
-20,887
-24,338
-32,463
-43,194
-54,395
-64,803
-73,635
-80,044
-83,546
-84,094
-82,04
-78,419
-74,465
-70,828
-67,844
-65,807
-64,779
-64,766
-65,724
-67,262
-68,848
-70,174
-71,054
-71,399
-71,252
-70,604
-69,414
-67,721
-65,594
-63,085
-60,243
-57,077
-53,569
-49,727
-45,57
-41,134
-36,465
-31,603
-26,58
-21,419
-16,134
-10,739
-5,247
0,334
5,997
11,746
17,587
23,524
29,56
35,699
41,938
48,279
54,724
61,27
67,906
74,616
81,372
88,151
94,931
101,693
108,424
115,109
121,727
128,254
134,664
140,931
147,048
153,013
158,822
164,488
170,031
175,488
180,922
186,387
191,918
197,534
203,232
209,008
214,861
220,789
226,786
232,84
238,914
244,964
250,944
256,782
262,382
267,614
272,308
276,29
279,427
281,612
282,762
282,803
281,659
279,261
275,562
270,53
264,149
256,411
247,318
236,905
225,251
212,482
198,778
184,338
169,334
153,915
138,229
122,421
106,646
91,059
75,789
60,948
46,648
33,008
20,138
8,121
-2,999
-13,226
-22,597
-31,178
-39,023
-46,178
-52,707
-58,675
-64,163
-69,26
-74,03
-78,521
-82,793
-86,911
-90,94
-94,931
-98,91
-102,877
-106,819
-110,71
-114,527
-118,245
-121,827
-125,23
-128,407
-131,305
-133,888
-136,138
-138,033
-139,55
-140,672
-141,387
-141,698
-141,622
-141,176
-140,379
-139,254
-137,826
-136,126
-134,192
-132,06
-129,773
-127,364
-124,858
-122,281
-119,656
-117,005
-114,346
-111,692
-109,052
-106,436
-103,857
-101,325
-98,852
-96,446
-94,112
-91,856
-89,683
-87,597
-85,603
-83,705
-81,909
-80,217
-78,633
-77,162
-75,807
-74,571
-73,453
-72,453
-71,57
-70,801
-70,144
-69,597
-69,156
-68,818
-68,58
-68,439
-68,393
-68,439
-68,573
-68,793
-69,094
-69,474
-69,927
-70,452
-71,043
-71,696
-72,408
-73,175
-73,994
-74,859
-75,769
-76,718
-77,704
-78,724
-79,774
-80,852
-81,956
-83,083
-84,231
-85,401
-86,589
-87,795
-89,017
-90,255
-91,506
-92,77
-94,043
-95,325
-96,612
-97,903
-99,195
-100,486
-101,772
-103,052
-104,323
-105,581
-106,826
-108,054
-109,263
-110,452
-111,619
-112,762
-113,881
-114,973
-116,039
-117,076
-118,083
-119,059
-120,003
-120,914
-121,789
-122,628
-123,429
-124,191
-124,913
-125,595
-126,236
-126,835
-127,394
-127,911
-128,389
-128,827
-129,226
-129,586
-129,91
-130,199
-130,454
-130,675
-130,865
-131,025
-131,154
-131,253
-131,322
-131,358
-131,361
-131,329
-131,261
-131,154
-131,008
-130,821
-130,592
-130,323
-130,013
-129,661
-129,266
-128,826
-128,341
-127,809
-127,226
-126,591
-125,9
-125,151
-124,342
-123,475
-122,549
-121,566
-120,523
-119,417
-118,248
-117,02
-115,739
-114,408
-113,036
-111,633
-110,216
-108,807
-107,427
-106,097
-104,834
-103,648
-102,549
-101,547
-100,648
-99,86
-99,182
-98,603
-98,114
-97,705
-97,365
-97,078
-96,819
-96,543
-96,206
-95,774
-95,211
-94,485
-93,572
-92,454
-91,122
-89,577
-87,835
-85,921
-83,868
-81,699
-79,438
-77,118
-74,786
-72,521
-70,418
-68,558
-67,031
-65,93
-65,323
-65,283
-65,877
-67,151
-69,151
-71,923
-75,48
-79,862
-85,14
-91,283
-98,162
-105,515
-112,939
-120,07
-126,641
-132,424
-137,207
-141,014
-144,078
-146,8
-149,79
-153,484
-157,914
-162,727
-167,381
-170,92
-172,134
-169,969
-163,202
-150,828
-132,55
-108,684
-79,892
-47,39
-12,46
24,2
61,691
99,116
135,997
171,997
206,969
240,994
273,542
303,103
328,145
347,035
358,156
360,199
351,715
331,609
300,103
258,651
209,295
154,76
98,001
42,18
-8,845
-51,658
-84,198
-105,452
-115,199
-114,072
-103,379
-85,409
-63,683
-41,527
-21,243
-4,445
7,756
14,655
16,128
13,117
7,671
1,747
-3,478
-7,334
-9,424
-9,356
-6,944
-2,644
2,449
7,303
11,371
14,462
16,584
17,681
17,686
16,773
15,372
13,912
12,669
11,773
11,245
11,12
11,473
12,335
13,683
15,482
17,689
20,268
23,2
26,455
29,979
33,714
37,587
41,513
45,419
49,242
52,933
56,466
59,836
63,045
66,098
69,008
71,808
74,548
77,289
80,095
83,018
86,111
89,443
93,097
97,155
101,675
106,693
112,22
118,248
124,765
131,762
139,215
147,081
155,306
163,83
172,595
181,573
190,724
199,986
209,277
218,503
227,59
236,484
245,142
253,528
261,591
269,275
276,537
283,352
289,683
295,495
300,73
305,293
309,124
312,186
314,465
315,959
316,652
316,517
315,536
313,705
311,036
307,549
303,243
298,118
292,203
285,541
278,208
270,307
261,895
253,015
243,711
234,025
224,026
213,787
203,367
192,819
182,199
171,576
161,049
150,707
140,604
130,783
121,264
112,065
103,248
94,874
86,983
79,611
72,763
66,442
60,666
55,437
50,735
46,516
42,704
39,238
36,09
33,231
30,64
28,285
26,105
24,05
22,091
20,201
18,37
16,582
14,813
13,058
11,332
9,666
8,106
6,684
5,406
4,281
3,314
2,513
1,897
1,472
1,227
1,155
1,246
1,491
1,888
2,421
3,064
3,786
4,554
5,343
6,139
6,927
7,697
8,436
9,136
9,795
10,416
11,001
11,551
12,064
12,54
12,982
13,397
13,79
14,169
14,539
14,904
15,267
15,634
16,007
16,388
16,778
17,177
17,586
18,008
18,445
18,898
19,37
19,861
20,374
20,91
21,468
22,048
22,65
23,271
23,909
24,563
25,228
25,903
26,582
27,262
27,94
28,61
29,268
29,908
30,526
31,116
31,675
32,195
32,674
33,106
33,486
33,811
34,076
34,277
34,41
34,472
34,459
34,369
34,197
33,942
33,603
33,176
32,662
32,061
31,372
30,597
29,736
28,793
27,768
26,666
25,489
24,241
22,926
21,547
20,111
18,622
17,085
15,506
13,891
12,246
10,577
8,892
7,196
5,495
3,798
2,11
0,439
-1,208
-2,824
-4,403
-5,938
-7,421
-8,847
-10,21
-11,505
-12,726
-13,869
-14,93
-15,906
-16,793
-17,588
-18,29
-18,897
-19,407
-19,819
-20,133
-20,35
-20,469
-20,493
-20,422
-20,26
-20,008
-19,67
-19,251
-18,753
-18,181
-17,54
-16,837
-16,076
-15,264
-14,409
-13,517
-12,596
-11,653
-10,697
-9,736
-8,776
-7,826
-6,892
-5,982
-5,102
-4,259
-3,46
-2,71
-2,015
-1,38
-0,812
-0,313
0,111
0,459
0,726
0,912
1,014
1,033
0,969
0,821
0,592
0,284
-0,102
-0,561
-1,089
-1,68
-2,329
-3,027
-3,769
-4,544
-5,345
-6,162
-6,985
-7,805
-8,613
-9,398
-10,151
-10,861
-11,518
-12,112
-12,633
-13,071
-13,418
-13,666
-13,806
-13,832
-13,737
-13,516
-13,166
-12,684
-12,068
-11,316
-10,43
-9,41
-8,26
-6,983
-5,584
-4,067
-2,438
-0,705
1,126
3,043
5,039
7,101
9,217
11,373
13,555
15,752
17,95
20,142
22,317
24,464
26,572
28,622
30,601
32,496
34,291
35,977
37,544
38,987
40,313
41,539
42,679
43,746
44,748
45,686
46,565
47,398
48,196
48,988
49,797
50,636
51,531
52,5
53,553
54,692
55,881
57,053
58,152
59,136
59,991
60,714
61,273
61,611
61,653
61,306
60,52
59,228
57,308
54,749
51,64
48,191
44,859
42,098
40,218
39,581
40,423
42,577
45,703
49,138
51,812
52,976
52,106
48,622
42,6
34,907
26,897
20,715
18,834
23,044
35,015
56,435
87,898
128,975
178,081
232,137
287,821
342,346
392,676
435,68
468,854
490,235
499,298
497,19
485,178
464,299
435,804
400,9
361,126
318,486
274,206
228,603
182,129
135,672
90,821
49,928
14,919
-13,148
-33,384
-44,862
-46,762
-38,999
-22,969
-1,39
22,681
46,626
68,564
86,921
99,963
106,583
106,904
102,113
94,248
85,391
76,774
69,254
63,836
61,133
61,235
63,774
67,645
71,541
74,76
76,911
77,64
76,861
74,576
70,868
66,188
61,119
55,996
51,033
46,371
42,013
38,004
34,42
31,239
28,435
26,03
24,039
22,5
21,466
20,941
20,91
21,358
22,239
23,514
25,147
27,081
29,283
31,734
34,408
37,286
40,341
43,525
46,805
50,16
53,57
57,028
60,524
64,043
67,586
71,163
74,786
78,485
82,281
86,186
90,226
94,434
98,849
103,526
108,498
113,775
119,365
125,259
131,448
137,927
144,666
151,617
158,723
165,912
173,103
180,213
187,133
193,727
199,861
205,39
210,193
214,183
217,279
219,42
220,557
220,651
219,693
217,699
214,695
210,719
205,828
200,084
193,583
186,453
178,815
170,796
162,507
154,03
145,449
136,835
128,246
119,729
111,313
103,006
94,812
86,73
78,751
70,869
63,062
55,294
47,538
39,774
31,995
24,215
16,442
8,679
0,933
-6,798
-14,501
-22,15
-29,713
-37,15
-44,425
-51,515
-58,399
-65,053
-71,468
-77,642
-83,594
-89,375
-95,018
-100,529
-105,894
-111,064
-116,001
-120,687
-125,104
-129,245
-133,102
-136,651
-139,873
-142,763
-145,302
-147,463
-149,192
-150,394
-150,998
-150,99
-150,393
-149,278
-147,725
-145,788
-143,537
-141,054
-138,414
-135,697
-132,97
-130,265
-127,626
-125,12
-122,829
-120,871
-119,342
-118,274
-117,667
-117,495
-117,713
-118,296
-119,199
-120,345
-121,672
-123,134
-124,693
-126,353
-128,112
-129,933
-131,789
-133,641
-135,463
-137,291
-139,163
-141,109
-143,164
-145,349
-147,682
-150,206
-152,931
-155,834
-158,887
-162,033
-165,214
-168,397
-171,526
-174,534
-177,343
-179,83
-181,876
-183,404
-184,336
-184,617
-184,215
-183,1
-181,289
-178,859
-175,886
-172,47
-168,72
-164,737
-160,648
-156,598
-152,728
-149,207
-146,197
-143,821
-142,2
-141,436
-141,602
-142,761
-144,92
-148,018
-151,983
-156,719
-162,104
-168,014
-174,29
-180,758
-187,268
-193,667
-199,808
-205,573
-210,839
-215,489
-219,427
-222,553
-224,814
-226,209
-226,75
-226,477
-225,46
-223,782
-221,561
-218,932
-215,998
-212,846
-209,556
-206,182
-202,79
-199,452
-196,224
-193,176
-190,36
-187,803
-185,526
-183,536
-181,815
-180,334
-179,04
-177,864
-176,759
-175,7
-174,67
-173,67
-172,698
-171,748
-170,822
-169,917
-169,027
-168,151
-167,284
-166,424
-165,575
-164,751
-163,973
-163,279
-162,699
-162,251
-161,942
-161,768
-161,717
-161,773
-161,917
-162,126
-162,371
-162,632
-162,896
-163,158
-163,428
-163,711
-163,997
-164,27
-164,497
-164,653
-164,73
-164,727
-164,645
-164,507
-164,331
-164,154
-164,037
-164,021
-164,122
-164,339
-164,631
-164,953
-165,28
-165,595
-165,889
-166,153
-166,351
-166,443
-166,393
-166,135
-165,593
-164,671
-163,234
-161,179
-158,456
-155,044
-150,976
-146,315
-141,098
-135,378
-129,22
-122,688
-115,87
-108,87
-101,784
-94,747
-87,925
-81,494
-75,66
-70,6
-66,421
-63,2
-60,955
-59,657
-59,283
-59,787
-61,094
-63,139
-65,837
-69,082
-72,766
-76,745
-80,841
-84,887
-88,709
-92,153
-95,124
-97,562
-99,468
-100,9
-101,928
-102,617
-103,039
-103,258
-103,354
-103,44
-103,642
-104,094
-104,923
-106,239
-108,154
-110,691
-113,754
-117,139
-120,497
-123,447
-125,683
-126,942
-126,98
-125,813
-123,666
-120,817
-117,656
-114,484
-111,401
-108,43
-105,565
-102,311
-97,716
-90,882
-80,978
-67,325
-49,382
-26,612
1,624
35,357
73,675
115,582
160,181
206,252
251,969
295,066
332,782
362,164
381,099
387,889
380,297
358,193
324,576
280,792
227,952
166,568
93,244
12,334
-64,191
-125,429
-159,122
-163,65
-149,578
-126,42
-104,125
-87,081
-72,212
-58,499
-45,149
-32,644
-24,231
-21,005
-22,837
-28,867
-36,489
-43,838
-50,291
-55,333
-58,905
-61,073
-61,505
-60,448
-58,857
-57,424
-56,533
-56,352
-56,692
-57,441
-58,75
-60,514
-62,373
-64,038
-65,234
-65,823
-65,873
-65,4
-64,344
-62,69
-60,443
-57,615
-54,271
-50,452
-46,16
-41,419
-36,254
-30,705
-24,833
-18,696
-12,347
-5,836
0,806
7,553
14,37
21,219
28,049
34,802
41,44
47,945
54,298
60,498
66,54
72,428
78,182
83,829
89,391
94,888
100,33
105,721
111,081
116,436
121,825
127,301
132,896
138,624
144,498
150,52
156,684
162,989
169,42
175,953
182,575
189,271
196,027
202,834
209,664
216,473
223,215
229,834
236,283
242,53
248,536
254,253
259,63
264,603
269,102
273,059
276,389
279,006
280,829
281,779
281,788
280,809
278,789
275,681
271,434
265,977
259,268
251,293
242,066
231,633
220,065
207,443
193,873
179,484
164,409
148,799
132,816
116,609
100,351
84,232
68,459
53,28
38,916
25,539
13,289
2,268
-7,451
-15,797
-22,718
-28,207
-32,281
-34,991
-36,421
-36,655
-35,816
-34,07
-31,619
-28,716
-25,608
-22,484
-19,501
-16,79
-14,464
-12,651
-11,473
-11,003
-11,288
-12,347
-14,165
-16,723
-19,974
-23,815
-28,109
-32,678
-37,344
-41,976
-46,482
-50,777
-54,794
-58,451
-61,663
-64,384
-66,587
-68,253
-69,383
-69,978
-70,053
-69,663
-68,888
-67,828
-66,586
-65,233
-63,816
-62,375
-60,943
-59,553
-58,241
-57,023
-55,903
-54,892
-53,995
-53,221
-52,577
-52,049
-51,612
-51,238
-50,896
-50,563
-50,232
-49,892
-49,54
-49,174
-48,794
-48,405
-48,016
-47,634
-47,259
-46,891
-46,53
-46,177
-45,841
-45,526
-45,239
-44,984
-44,767
-44,592
-44,462
-44,378
-44,343
-44,355
-44,413
-44,517
-44,669
-44,87
-45,123
-45,428
-45,789
-46,206
-46,682
-47,217
-47,813
-48,467
-49,18
-49,95
-50,775
-51,653
-52,583
-53,562
-54,589
-55,659
-56,772
-57,923
-59,111
-60,332
-61,581
-62,855
-64,15
-65,461
-66,784
-68,113
-69,445
-70,774
-72,095
-73,403
-74,693
-75,96
-77,196
-78,397
-79,554
-80,663
-81,717
-82,708
-83,631
-84,48
-85,25
-85,934
-86,528
-87,028
-87,427
-87,723
-87,911
-87,986
-87,945
-87,784
-87,499
-87,088
-86,548
-85,876
-85,071
-84,131
-83,054
-81,84
-80,488
-78,997
-77,368
-75,602
-73,699
-71,662
-69,495
-67,201
-64,785
-62,253
-59,612
-56,869
-54,034
-51,115
-48,123
-45,067
-41,96
-38,813
-35,64
-32,451
-29,258
-26,075
-22,913
-19,786
-16,708
-13,694
-10,757
-7,912
-5,175
-2,564
-0,091
2,229
4,389
6,378
8,185
9,8
11,208
12,397
13,359
14,087
14,573
14,818
14,825
14,609
14,196
13,611
12,879
12,017
11,038
9,953
8,779
7,537
6,254
4,961
3,683
2,446
1,282
0,199
-0,8
-1,735
-2,666
-3,647
-4,723
-5,924
-7,249
-8,695
-10,281
-12,043
-14,035
-16,328
-18,96
-21,98
-25,479
-29,419
-33,656
-37,934
-41,823
-44,942
-47,061
-48
-47,616
-46,071
-43,742
-41,163
-39,081
-37,929
-37,774
-38,434
-39,512
-40,259
-39,534
-36,001
-28,265
-15,449
2,805
26,355
54,76
87,456
123,282
160,81
198,707
235,816
271,277
304,703
335,565
362,78
385,635
403,378
414,75
418,692
414,046
399,249
373,609
337,757
292,545
239,557
181,703
122,023
64,133
12,475
-29,696
-60,623
-78,929
-84,219
-77,782
-61,548
-38,638
-13,455
10,726
31,842
47,95
57,751
61,082
58,366
51,234
42,474
33,919
26,508
21,143
18,395
18,455
21,3
26,138
31,496
36,483
40,739
44,005
46,25
47,45
47,564
46,868
45,914
45,066
44,52
44,396
44,665
45,347
46,513
48,157
50,227
52,679
55,464
58,559
61,974
65,703
69,717
73,992
78,486
83,165
88
92,962
98,029
103,186
108,423
113,734
119,115
124,566
130,084
135,67
141,319
147,02
152,762
158,528
164,301
170,068
175,816
181,538
187,224
192,861
198,426
203,898
209,258
214,489
219,586
224,546
229,365
234,06
238,656
243,186
247,695
252,204
256,712
261,217
265,707
270,177
274,626
279,044
283,405
287,689
291,869
295,907
299,764
303,359
306,575
309,298
311,404
312,798
313,422
313,212
312,105
310,055
307,023
302,988
297,952
291,905
284,82
276,701
267,572
257,51
246,658
235,15
223,126
210,719
198,045
185,236
172,445
159,79
147,367
135,261
123,54
112,298
101,663
91,726
82,547
74,147
66,486
59,533
53,262
47,621
42,555
37,983
33,802
29,942
26,371
23,048
19,946
17,011
14,159
11,335
8,509
5,665
2,815
-0,036
-2,893
-5,732
-8,513
-11,186
-13,686
-15,976
-18,048
-19,892
-21,499
-22,859
-23,946
-24,754
-25,293
-25,572
-25,604
-25,4
-24,968
-24,33
-23,523
-22,585
-21,557
-20,472
-19,347
-18,202
-17,056
-15,926
-14,827
-13,771
-12,761
-11,805
-10,913
-10,096
-9,365
-8,727
-8,183
-7,736
-7,387
-7,14
-6,998
-6,964
-7,04
-7,229
-7,535
-7,961
-8,511
-9,187
-9,99
-10,919
-11,973
-13,151
-14,451
-15,872
-17,409
-19,061
-20,824
-22,697
-24,675
-26,756
-28,935
-31,208
-33,57
-36,016
-38,539
-41,133
-43,791
-46,506
-49,269
-52,075
-54,913
-57,778
-60,659
-63,55
-66,442
-69,329
-72,202
-75,054
-77,878
-80,667
-83,414
-86,114
-88,76
-91,346
-93,866
-96,314
-98,686
-100,978
-103,183
-105,298
-107,318
-109,238
-111,058
-112,771
-114,376
-115,87
-117,251
-118,519
-119,678
-120,727
-121,668
-122,503
-123,235
-123,868
-124,406
-124,849
-125,198
-125,452
-125,611
-125,683
-125,675
-125,59
-125,435
-125,217
-124,943
-124,623
-124,271
-123,885
-123,467
-123,018
-122,539
-122,045
-121,55
-121,058
-120,58
-120,109
-119,637
-119,161
-118,669
-118,131
-117,519
-116,801
-115,941
-114,939
-113,79
-112,482
-111,016
-109,377
-107,556
-105,559
-103,394
-101,074
-98,624
-96,07
-93,457
-90,865
-88,365
-86,027
-83,927
-82,09
-80,543
-79,311
-78,378
-77,727
-77,326
-77,126
-77,091
-77,17
-77,272
-77,286
-77,063
-76,411
-75,172
-73,149
-70,103
-65,92
-60,54
-54,003
-46,539
-38,329
-29,465
-20,132
-10,458
-0,308
10,562
22,643
36,714
53,259
72,57
94,979
120,37
148,025
176,854
205,221
231,087
252,832
268,933
277,712
278,384
271,2
257,138
238,106
216,533
194,527
174,44
159,179
150,781
150,245
157,729
172,354
192,848
218,208
247,136
277,57
307,666
336,019
361,763
384,704
404,677
421,144
433,233
440,348
442,306
439,037
430,258
415,469
394,17
366,221
332,632
294,975
254,468
212,361
170,133
129,451
92,483
61,312
36,698
18,54
6,664
0,506
-0,74
1,802
6,2
10,494
13,617
15,077
14,667
12,523
8,81
3,925
-1,219
-5,822
-9,524
-12,225
-14,087
-15,378
-16,267
-16,995
-17,949
-19,374
-21,372
-23,942
-26,938
-30,212
-33,668
-37,192
-40,657
-43,962
-47,011
-49,72
-52,048
-53,953
-55,401
-56,372
-56,858
-56,872
-56,443
-55,61
-54,413
-52,893
-51,086
-49,032
-46,77
-44,334
-41,772
-39,135
-36,482
-33,879
-31,374
-28,991
-26,745
-24,628
-22,623
-20,71
-18,858
-17,035
-15,209
-13,35
-11,434
-9,446
-7,359
-5,136
-2,73
-0,067
2,904
6,213
9,882
13,913
18,305
23,055
28,145
33,538
39,201
45,091
51,175
57,424
63,795
70,235
76,667
82,991
89,118
94,968
100,461
105,526
110,087
114,056
117,37
119,975
121,824
122,879
123,095
122,425
120,834
118,308
114,859
110,52
105,328
99,316
92,533
85,026
76,858
68,113
58,853
49,141
39,044
28,629
17,982
7,198
-3,629
-14,425
-25,136
-35,72
-46,141
-56,357
-66,342
-76,065
-85,51
-94,667
-103,507
-112,004
-120,143
-127,92
-135,352
-142,476
-149,337
-155,961
-162,367
-168,563
-174,554
-180,348
-185,949
-191,356
-196,572
-201,598
-206,458
-211,174
-215,761
-220,219
-224,534
-228,676
-232,608
-236,305
-239,748
-242,924
-245,829
-248,459
-250,818
-252,915
-254,759
-256,355
-257,696
-258,775
-259,589
-260,145
-260,462
-260,564
-260,481
-260,238
-259,864
-259,384
-258,817
-258,178
-257,472
-256,698
-255,858
-254,964
-254,035
-253,093
-252,163
-251,26
-250,404
-249,618
-248,918
-248,31
-247,787
-247,33
-246,931
-246,591
-246,327
-246,161
-246,1
-246,134
-246,253
-246,438
-246,666
-246,912
-247,127
-247,248
-247,237
-247,081
-246,809
-246,475
-246,114
-245,745
-245,381
-245,029
-244,724
-244,51
-244,418
-244,482
-244,739
-245,248
-246,108
-247,432
-249,289
-251,698
-254,622
-257,985
-261,731
-265,806
-270,15
-274,688
-279,32
-283,952
-288,524
-292,981
-297,262
-301,275
-304,884
-307,95
-310,385
-312,147
-313,246
-313,722
-313,606
-312,944
-311,807
-310,29
-308,508
-306,553
-304,478
-302,326
-300,146
-298,011
-296,025
-294,281
-292,836
-291,728
-290,965
-290,544
-290,468
-290,714
-291,236
-291,97
-292,843
-293,804
-294,827
-295,895
-296,985
-298,069
-299,103
-300,056
-300,913
-301,658
-302,281
-302,773
-303,123
-303,334
-303,422
-303,404
-303,301
-303,131
-302,9
-302,614
-302,283
-301,914
-301,521
-301,119
-300,717
-300,326
-299,958
-299,619
-299,315
-299,049
-298,819
-298,628
-298,469
-298,318
-298,154
-297,945
-297,664
-297,286
-296,776
-296,085
-295,172
-294,005
-292,559
-290,821
-288,778
-286,417
-283,728
-280,708
-277,38
-273,793
-270,01
-266,105
-262,152
-258,21
-254,356
-250,68
-247,26
-244,157
-241,424
-239,102
-237,239
-235,898
-235,139
-235,008
-235,518
-236,635
-238,291
-240,399
-242,889
-245,723
-248,866
-252,278
-255,908
-259,72
-263,716
-267,807
-271,813
-275,433
-278,254
-279,907
-280,161
-278,879
-275,975
-271,652
-266,317
-260,494
-254,893
-249,98
-245,909
-242,61
-239,829
-236,941
-232,909
-226,532
-216,514
-202,036
-182,753
-158,592
-129,648
-96,174
-59,064
-19,737
20,254
59,69
97,703
133,532
166,046
193,515
214,618
228,807
235,714
234,975
225,984
207,986
181,266
147,613
109,066
67,297
23,988
-19,26
-60,165
-95,602
-123,479
-143,242
-154,943
-158,927
-155,598
-145,162
-129,041
-110,06
-90,577
-72,24
-56,124
-42,617
-32,304
-26,173
-24,088
-24,785
-26,982
-29,31
-30,938
-31,761
-31,368
-29,039
-24,661
-18,614
-11,534
-4,423
2,149
8,101
13,205
17,19
19,946
21,448
21,944
21,946
21,762
21,498
21,243
21,032
20,951
21,145
21,641
22,387
23,372
24,63
26,272
28,437
31,2
34,576
38,547
43,075
48,135
53,723
59,807
66,338
73,259
80,514
88,102
96,052
104,369
113,016
121,904
130,936
140,052
149,232
158,465
167,737
177,036
186,348
195,683
205,08
214,558
224,103
233,657
243,124
252,419
261,503
270,367
279,007
287,408
295,528
303,329
310,792
317,884
324,562
330,759
336,378
341,35
345,656
349,311
352,367
354,897
356,934
358,504
359,641
360,366
360,706
360,681
360,277
359,493
358,352
356,898
355,207
353,344
351,328
349,16
346,817
344,252
341,435
338,343
334,927
331,165
327,062
322,639
317,961
313,103
308,112
303,017
297,828
292,549
287,213
281,86
276,529
271,281
266,172
261,262
256,639
252,368
248,473
244,957
241,778
238,87
236,191
233,711
231,4
229,246
227,222
225,3
223,467
221,702
219,974
218,245
216,453
214,543
212,494
210,3
207,982
205,581
203,12
200,619
198,103
195,582
193,068
190,571
188,086
185,606
183,136
180,688
178,285
175,953
173,7
171,533
169,446
167,429
165,476
163,583
161,743
159,953
158,217
156,539
154,929
153,404
151,973
150,643
149,419
148,301
147,296
146,407
145,641
145,003
144,498
144,129
143,904
143,824
143,893
144,109
144,47
144,971
145,606
146,372
147,26
148,264
149,376
150,59
151,896
153,288
154,756
156,292
157,887
159,53
161,212
162,924
164,655
166,396
168,137
169,87
171,586
173,278
174,938
176,559
178,136
179,662
181,133
182,543
183,889
185,166
186,373
187,509
188,572
189,563
190,485
191,341
192,135
192,874
193,561
194,204
194,806
195,375
195,916
196,435
196,936
197,425
197,908
198,393
198,889
199,403
199,944
200,52
201,139
201,81
202,538
203,329
204,183
205,106
206,1
207,171
208,329
209,576
210,909
212,325
213,819
215,381
216,998
218,647
220,299
221,928
223,521
225,069
226,572
228,028
229,429
230,77
232,049
233,262
234,414
235,502
236,519
237,47
238,37
239,248
240,154
241,111
242,121
243,169
244,228
245,265
246,255
247,156
247,923
248,519
248,915
249,098
249,07
248,813
248,298
247,481
246,297
244,718
242,751
240,42
237,772
234,86
231,732
228,453
225,083
221,657
218,196
214,696
211,148
207,56
203,924
200,239
196,507
192,695
188,776
184,693
180,324
175,627
170,644
165,457
160,332
155,544
151,144
147,22
143,865
140,868
138,056
135,202
131,671
127,104
121,745
115,946
110,453
106,541
105,088
106,917
113,187
124,425
140,599
161,489
186,052
212,715
240,507
268,641
296,413
323,713
350,258
375,689
400,288
424,456
448,109
470,707
490,95
507,228
518,634
524,406
523,583
515,326
498,884
474,357
443,137
406,771
366,471
323,864
280,924
240,05
204,071
174,833
152,968
139,068
133,517
135,816
144,654
157,614
171,695
184,789
195,577
202,722
205,153
202,504
195,297
185,206
174,174
163,405
153,61
145,413
139,366
135,77
134,343
134,095
134,047
133,69
132,838
131,476
129,545
126,969
123,916
120,821
118,096
115,987
114,599
113,923
114,012
114,962
116,816
119,564
123,153
127,52
132,62
138,41
144,825
151,777
159,167
166,89
174,864
183,005
191,227
199,445
207,536
215,386
222,895
229,957
236,502
242,5
247,932
252,816
257,215
261,187
264,807
268,167
271,325
274,347
277,3
280,239
283,255
286,442
289,885
293,68
297,903
302,592
307,779
313,475
319,622
326,148
332,954
339,903
346,886
353,799
360,525
366,958
372,987
378,492
383,367
387,513
390,822
393,207
394,576
394,833
393,944
391,911
388,765
384,584
379,442
373,412
366,593
359,094
351,005
342,407
333,362
323,904
314,086
303,964
293,603
283,091
272,487
261,82
251,106
240,341
229,499
218,55
207,437
196,08
184,431
172,472
160,212
147,702
134,991
122,134
109,173
96,14
83,064
69,982
56,932
43,954
31,104
18,453
6,09
-5,875
-17,355
-28,293
-38,664
-48,475
-57,754
-66,545
-74,889
-82,82
-90,367
-97,548
-104,378
-110,869
-117,044
-122,929
-128,567
-134,019
-139,333
-144,549
-149,685
-154,741
-159,701
-164,532
-169,206
-173,698
-177,993
-182,086
-185,977
-189,673
-193,181
-196,513
-199,67
-202,648
-205,443
-208,052
-210,481
-212,745
-214,865
-216,87
-218,788
-220,644
-222,461
-224,253
-226,035
-227,814
-229,596
-231,382
-233,175
-234,981
-236,804
-238,653
-240,532
-242,442
-244,384
-246,358
-248,362
-250,394
-252,453
-254,536
-256,644
-258,775
-260,93
-263,111
-265,318
-267,552
-269,81
-272,092
-274,394
-276,715
-279,052
-281,4
-283,756
-286,118
-288,482
-290,845
-293,205
-295,559
-297,906
-300,242
-302,569
-304,883
-307,185
-309,473
-311,746
-314,004
-316,245
-318,467
-320,668
-322,846
-324,997
-327,119
-329,21
-331,267
-333,288
-335,271
-337,215
-339,118
-340,978
-342,793
-344,56
-346,275
-347,936
-349,537
-351,075
-352,546
-353,944
-355,264
-356,505
-357,661
-358,73
-359,703
-360,57
-361,325
-361,964
-362,485
-362,889
-363,179
-363,363
-363,452
-363,468
-363,43
-363,355
-363,259
-363,148
-363,027
-362,901
-362,771
-362,642
-362,509
-362,357
-362,166
-361,915
-361,58
-361,132
-360,532
-359,729
-358,676
-357,34
-355,697
-353,733
-351,454
-348,873
-346,02
-342,937
-339,685
-336,336
-332,969
-329,669
-326,516
-323,589
-320,969
-318,741
-316,977
-315,733
-315,05
-314,955
-315,451
-316,515
-318,104
-320,146
-322,548
-325,223
-328,077
-331,015
-333,96
-336,85
-339,628
-342,247
-344,681
-346,928
-349,008
-350,965
-352,869
-354,78
-356,805
-359,129
-361,842
-364,93
-368,277
-371,579
-374,536
-376,992
-378,697
-379,344
-378,978
-377,844
-376,481
-375,98
-377,179
-380,493
-386,41
-395,042
-405,641
-417,061
-427,47
-434,094
-434,623
-427,231
-410,003
-381,951
-343,464
-295,796
-241,419
-183,938
-126,717
-73,012
-26,436
10,096
34,94
47,564
48,643
39,682
22,171
-2,351
-31,789
-63,811
-96,63
-129,13
-160,618
-190,556
-218,136
-242,125
-261,641
-276,588
-286,906
-292,488
-293,482
-290,198
-283,46
-274,847
-265,809
-257,118
-249,352
-242,866
-237,723
-233,976
-231,334
-229,018
-226,399
-223,232
-219,451
-215,214
-210,768
-206,248
-201,891
-198,07
-195,012
-192,801
-191,413
-190,678
-190,43
-190,553
-190,907
-191,336
-191,722
-191,947
-191,925
-191,62
-190,992
-190,007
-188,641
-186,873
-184,695
-182,124
-179,18
-175,891
-172,286
-168,388
-164,224
-159,826
-155,221
-150,441
-145,503
-140,415
-135,182
-129,813
-124,312
-118,69
-112,953
-107,104
-101,153
-95,12
-89,021
-82,876
-76,698
-70,494
-64,276
-58,056
-51,843
-45,656
-39,501
-33,373
-27,27
-21,185
-15,099
-8,997
-2,854
3,373
9,706
16,16
22,743
29,444
36,258
43,173
50,159
57,18
64,186
71,1
77,848
84,352
90,509
96,227
101,412
105,948
109,76
112,791
114,983
116,301
116,709
116,166
114,672
112,243
108,913
104,752
99,83
94,216
88,019
81,33
74,236
66,844
59,217
51,394
43,435
35,393
27,336
19,356
11,508
3,825
-3,667
-10,967
-18,078
-24,992
-31,734
-38,321
-44,756
-51,044
-57,16
-63,046
-68,68
-74,054
-79,175
-84,094
-88,835
-93,402
-97,804
-102,04
-106,107
-110,009
-113,732
-117,256
-120,581
-123,713
-126,679
-129,533
-132,303
-134,998
-137,616
-140,125
-142,508
-144,761
-146,875
-148,841
-150,656
-152,318
-153,834
-155,226
-156,504
-157,669
-158,714
-159,621
-160,38
-160,997
-161,478
-161,841
-162,1
-162,263
-162,341
-162,348
-162,292
-162,177
-162,004
-161,764
-161,452
-161,067
-160,611
-160,087
-159,497
-158,839
-158,112
-157,315
-156,446
-155,502
-154,483
-153,383
-152,201
-150,937
-149,593
-148,174
-146,682
-145,12
-143,494
-141,806
-140,062
-138,265
-136,419
-134,529
-132,599
-130,635
-128,642
-126,626
-124,593
-122,55
-120,504
-118,459
-116,422
-114,398
-112,391
-110,406
-108,446
-106,513
-104,609
-102,735
-100,895
-99,088
-97,316
-95,581
-93,883
-92,224
-90,606
-89,027
-87,487
-85,982
-84,509
-83,062
-81,637
-80,227
-78,826
-77,43
-76,031
-74,627
-73,216
-71,794
-70,357
-68,898
-67,41
-65,885
-64,323
-62,722
-61,085
-59,419
-57,735
-56,05
-54,386
-52,758
-51,175
-49,64
-48,147
-46,69
-45,266
-43,864
-42,489
-41,139
-39,809
-38,5
-37,209
-35,922
-34,621
-33,274
-31,833
-30,273
-28,579
-26,745
-24,79
-22,731
-20,584
-18,386
-16,159
-13,913
-11,672
-9,442
-7,229
-5,062
-2,967
-0,985
0,82
2,409
3,758
4,838
5,646
6,187
6,452
6,466
6,234
5,732
4,953
3,886
2,531
0,935
-0,881
-2,915
-5,149
-7,591
-10,229
-12,976
-15,786
-18,657
-21,488
-24,148
-26,372
-27,708
-27,883
-26,864
-24,636
-21,238
-16,778
-11,316
-5,199
0,899
6,702
12,323
18,032
24,334
31,67
40,323
50,902
64,248
80,7
100,249
122,667
147,435
174,129
202,299
231,089
259,556
287,072
312,944
336,32
356,174
371,238
380,405
382,874
377,738
363,896
340,765
308,626
268,632
222,592
172,631
121,21
71,428
27,02
-8,756
-33,844
-47,176
-48,453
-38,271
-18,193
9,076
39,648
69,774
96,795
118,653
133,703
141,193
141,306
135,277
125,53
114,534
103,884
94,816
88,446
85,363
85,696
89,037
94,209
99,943
105,579
110,748
115,17
118,798
121,647
123,835
125,809
128,087
130,913
134,357
138,405
142,973
148,003
153,442
159,129
164,825
170,364
175,642
180,54
184,905
188,615
191,607
194,002
196,125
198,175
200,141
201,947
203,493
204,708
205,501
205,435
203,632
199,487
193,076
185,048
176,464
168,308
161,349
156,663
155,969
160,776
171,516
187,496
207,071
228,472
250,43
271,673
290,325
304,485
313,201
316,646
316,146
313,423
309,577
305,371
301,861
300,22
301,196
304,922
310,695
317,387
324,357
331,367
338,198
344,582
350,247
355,024
359,072
362,778
366,31
369,603
372,484
374,729
376,213
376,876
376,608
375,236
372,603
368,585
363,126
356,249
347,984
338,364
327,442
315,303
302,097
288,031
273,327
258,2
242,839
227,421
212,138
197,176
182,718
168,942
155,98
143,936
132,902
122,94
114,088
106,348
99,667
93,947
89,088
84,979
81,513
78,578
76,035
73,761
71,647
69,586
67,502
65,328
62,999
60,472
57,726
54,756
51,588
48,265
44,824
41,317
37,799
34,331
30,991
27,84
24,919
22,267
19,907
17,857
16,134
14,742
13,669
12,901
12,418
12,195
12,209
12,431
12,826
13,358
13,985
14,673
15,399
16,143
16,888
17,622
18,331
19,01
19,656
20,267
20,839
21,366
21,845
22,271
22,646
22,97
23,243
23,465
23,635
23,751
23,812
23,814
23,754
23,629
23,436
23,174
22,842
22,441
21,973
21,439
20,844
20,189
19,476
18,704
17,872
16,979
16,023
15,002
13,913
12,756
11,529
10,236
8,879
7,461
5,983
4,444
2,84
1,169
-0,566
-2,361
-4,213
-6,111
-8,043
-9,989
-11,92
-13,816
-15,665
-17,46
-19,204
-20,902
-22,554
-24,165
-25,739
-27,275
-28,777
-30,245
-31,68
-33,096
-34,518
-35,988
-37,572
-39,318
-41,262
-43,426
-45,808
-48,394
-51,158
-54,064
-57,064
-60,121
-63,204
-66,28
-69,321
-72,28
-75,092
-77,671
-79,895
-81,648
-82,826
-83,354
-83,191
-82,334
-80,808
-78,662
-75,968
-72,787
-69,18
-65,211
-60,935
-56,414
-51,721
-46,961
-42,274
-37,824
-33,771
-30,236
-27,296
-24,985
-23,3
-22,217
-21,691
-21,673
-22,112
-22,966
-24,213
-25,86
-27,916
-30,361
-33,132
-36,113
-39,19
-42,31
-45,466
-48,7
-52,077
-55,628
-59,4
-63,483
-67,88
-72,505
-77,194
-81,587
-85,319
-88,261
-90,31
-91,402
-91,754
-91,553
-90,98
-90,521
-90,489
-90,727
-91,077
-91,21
-90,242
-87,433
-82,06
-73,045
-59,687
-41,755
-18,952
8,748
40,657
75,999
113,683
152,129
190,007
226,043
258,704
286,5
308,259
323,167
330,997
331,909
325,928
313,203
294,099
269,347
240,138
207,452
171,859
134,079
95,329
57,349
22,33
-7,996
-32,801
-51,31
-62,627
-66,306
-62,712
-53,466
-41,286
-28,494
-16,512
-6,534
0,289
3,02
1,344
-3,799
-10,407
-16,882
-22,356
-26,294
-28,333
-28,012
-25,118
-20,212
-14,452
-8,726
-3,479
1,121
5,09
8,269
10,501
11,943
12,974
13,911
14,928
16,069
17,284
18,629
20,221
22,107
24,29
26,747
29,452
32,421
35,701
39,308
43,224
47,42
51,855
56,5
61,336
66,336
71,467
76,692
81,965
87,253
92,531
97,766
102,919
107,933
112,731
117,253
121,463
125,334
128,861
132,045
134,893
137,43
139,695
141,717
143,518
145,108
146,492
147,703
148,797
149,858
151,004
152,344
153,981
156,009
158,502
161,5
165,021
169,044
173,521
178,424
183,731
189,421
195,475
201,83
208,384
215,007
221,525
227,735
233,425
238,371
242,373
245,278
246,95
247,259
246,096
243,335
238,876
232,675
224,663
214,77
203,031
189,617
174,85
159,128
142,72
125,698
108,131
90,228
72,146
53,877
35,143
15,577
-4,784
-25,33
-45,21
-63,856
-80,855
-95,727
-107,729
-115,923
-119,894
-120,114
-117,594
-113,157
-107,381
-100,784
-94,052
-88,187
-83,895
-81,203
-79,653
-78,834
-78,557
-78,801
-79,554
-80,596
-81,761
-83,126
-84,936
-87,416
-90,642
-94,534
-98,923
-103,671
-108,65
-113,703
-118,677
-123,438
-127,899
-132,021
-135,79
-139,19
-142,185
-144,745
-146,852
-148,498
-149,695
-150,465
-150,854
-150,929
-150,776
-150,485
-150,117
-149,716
-149,305
-148,903
-148,525
-148,186
-147,898
-147,669
-147,51
-147,428
-147,432
-147,527
-147,706
-147,954
-148,244
-148,549
-148,85
-149,136
-149,402
-149,649
-149,875
-150,083
-150,28
-150,474
-150,673
-150,879
-151,094
-151,319
-151,556
-151,812
-152,093
-152,406
-152,757
-153,149
-153,585
-154,069
-154,6
-155,179
-155,803
-156,47
-157,176
-157,921
-158,702
-159,52
-160,371
-161,253
-162,165
-163,103
-164,063
-165,041
-166,03
-167,026
-168,022
-169,012
-169,991
-170,953
-171,892
-172,805
-173,686
-174,529
-175,327
-176,072
-176,758
-177,377
-177,922
-178,384
-178,757
-179,034
-179,214
-179,296
-179,277
-179,156
-178,929
-178,589
-178,132
-177,561
-176,879
-176,086
-175,192
-174,207
-173,149
-172,048
-170,923
-169,787
-168,65
-167,508
-166,365
-165,22
-164,075
-162,928
-161,777
-160,615
-159,44
-158,254
-157,047
-155,801
-154,485
-153,046
-151,452
-149,689
-147,755
-145,664
-143,439
-141,105
-138,7
-136,279
-133,889
-131,578
-129,383
-127,33
-125,457
-123,807
-122,438
-121,428
-120,829
-120,664
-120,939
-121,632
-122,705
-124,107
-125,761
-127,558
-129,403
-131,203
-132,881
-134,38
-135,647
-136,631
-137,278
-137,525
-137,325
-136,648
-135,496
-133,906
-131,95
-129,731
-127,388
-125,069
-122,93
-121,147
-119,79
-118,822
-118,119
-117,449
-116,614
-115,533
-114,135
-112,33
-110,258
-108,224
-106,633
-106,062
-106,816
-108,768
-111,641
-115,029
-118,169
-120,118
-119,818
-115,941
-107,607
-94,605
-76,983
-54,995
-29,131
0,106
31,981
65,26
98,88
132,226
164,779
195,867
224,392
248,777
267,509
279,569
284,166
280,358
267,173
244,365
212,789
174,313
131,349
86,272
41,296
-1,001
-37,686
-66,65
-86,905
-98,455
-102,201
-99,333
-91,1
-79,357
-66,533
-54,454
-44,226
-36,366
-30,704
-26,916
-24,679
-23,25
-21,552
-18,908
-15,054
-10,012
-4,152
2,19
8,79
15,286
21,234
26,372
30,591
33,896
36,437
38,323
39,599
40,358
40,712
40,779
40,706
40,637
40,677
40,917
41,434
42,278
43,497
45,122
47,156
49,593
52,431
55,68
59,371
63,528
68,156
73,237
78,726
84,566
90,694
97,07
103,653
110,407
117,307
124,333
131,474
138,726
146,074
153,487
160,924
168,347
175,729
183,059
190,331
197,535
204,666
211,708
218,655
225,511
232,274
238,939
245,511
251,994
258,414
264,821
271,247
277,709
284,208
290,728
297,256
303,788
310,313
316,821
323,288
329,67
335,927
342,013
347,856
353,364
358,411
362,829
366,488
369,291
371,153
372,012
371,802
370,452
367,907
364,13
359,096
352,79
345,209
336,357
326,288
315,095
302,915
289,941
276,339
262,247
247,812
233,167
218,46
203,851
189,475
175,442
161,868
148,869
136,557
125,032
114,353
104,536
95,565
87,381
79,936
73,188
67,08
61,548
56,514
51,886
47,592
43,589
39,818
36,214
32,716
29,265
25,828
22,4
18,987
15,607
12,282
9,031
5,886
2,889
0,088
-2,462
-4,725
-6,682
-8,312
-9,593
-10,51
-11,048
-11,209
-11,009
-10,465
-9,594
-8,418
-6,958
-5,247
-3,321
-1,22
1,013
3,343
5,742
8,182
10,637
13,084
15,503
17,878
20,198
22,452
24,624
26,702
28,673
30,527
32,257
33,855
35,316
36,633
37,8
38,81
39,659
40,34
40,848
41,176
41,318
41,272
41,033
40,6
39,975
39,156
38,147
36,949
35,565
34,001
32,261
30,349
28,272
26,035
23,645
21,109
18,436
15,635
12,713
9,68
6,545
3,32
0,012
-3,366
-6,806
-10,295
-13,823
-17,379
-20,952
-24,529
-28,1
-31,653
-35,177
-38,66
-42,092
-45,462
-48,759
-51,972
-55,093
-58,11
-61,017
-63,803
-66,461
-68,983
-71,364
-73,596
-75,674
-77,594
-79,351
-80,94
-82,361
-83,61
-84,686
-85,589
-86,321
-86,881
-87,274
-87,502
-87,571
-87,487
-87,256
-86,887
-86,388
-85,768
-85,038
-84,21
-83,294
-82,301
-81,242
-80,13
-78,979
-77,801
-76,611
-75,421
-74,245
-73,098
-71,994
-70,948
-69,973
-69,077
-68,269
-67,559
-66,958
-66,483
-66,145
-65,949
-65,903
-66,009
-66,269
-66,682
-67,239
-67,918
-68,693
-69,542
-70,445
-71,395
-72,379
-73,381
-74,38
-75,341
-76,24
-77,064
-77,797
-78,43
-78,959
-79,38
-79,716
-80,027
-80,378
-80,832
-81,438
-82,209
-83,149
-84,278
-85,647
-87,318
-89,355
-91,801
-94,649
-97,89
-101,553
-105,577
-109,811
-114,005
-117,726
-120,574
-122,395
-123,08
-122,549
-120,976
-118,474
-115,178
-111,698
-108,547
-105,806
-103,561
-101,53
-98,81
-94,821
-89,103
-80,585
-68,377
-51,862
-30,203
-3,384
27,561
61,794
98,474
136,224
173,561
208,517
238,414
261,189
275,73
281,062
276,294
260,738
234,355
198,374
155,215
107,605
58,028
8,838
-37,33
-77,493
-109,483
-132,393
-146,424
-152,662
-152,416
-146,996
-138,285
-128,739
-120,208
-113,776
-109,899
-108,287
-108,524
-110,249
-112,698
-114,798
-115,862
-115,574
-113,919
-111,27
-107,974
-104,274
-100,55
-97,221
-94,533
-92,597
-91,396
-90,771
-90,586
-90,743
-91,108
-91,558
-91,983
-92,279
-92,359
-92,149
-91,585
-90,617
-89,209
-87,341
-85,004
-82,203
-78,957
-75,296
-71,25
-66,852
-62,129
-57,103
-51,805
-46,268
-40,53
-34,633
-28,606
-22,471
-16,246
-9,945
-3,579
2,842
9,312
15,834
22,405
29,023
35,683
42,377
49,093
55,824
62,557
69,276
75,958
82,57
89,078
95,454
101,674
107,72
113,58
119,238
124,682
129,904
134,891
139,63
144,109
148,31
152,216
155,829
159,159
162,236
165,099
167,771
170,263
172,583
174,725
176,674
178,406
179,873
181,038
181,873
182,357
182,48
182,232
181,58
180,473
178,843
176,605
173,69
170,035
165,58
160,282
154,128
147,135
139,366
130,882
121,736
111,974
101,635
90,771
79,465
67,813
55,93
43,953
32,025
20,3
8,945
-1,891
-12,094
-21,591
-30,356
-38,375
-45,624
-52,088
-57,752
-62,618
-66,717
-70,086
-72,771
-74,843
-76,392
-77,534
-78,412
-79,157
-79,868
-80,62
-81,449
-82,386
-83,462
-84,696
-86,105
-87,692
-89,448
-91,364
-93,44
-95,658
-97,986
-100,374
-102,744
-105,025
-107,172
-109,146
-110,933
-112,522
-113,902
-115,072
-116,043
-116,822
-117,425
-117,862
-118,13
-118,235
-118,187
-117,999
-117,709
-117,348
-116,933
-116,483
-116,008
-115,511
-115,004
-114,489
-113,959
-113,413
-112,846
-112,257
-111,654
-111,042
-110,425
-109,809
-109,189
-108,562
-107,928
-107,287
-106,64
-105,99
-105,338
-104,685
-104,036
-103,399
-102,778
-102,179
-101,602
-101,048
-100,521
-100,022
-99,553
-99,119
-98,722
-98,364
-98,049
-97,779
-97,558
-97,387
-97,267
-97,199
-97,184
-97,22
-97,309
-97,451
-97,646
-97,893
-98,191
-98,539
-98,938
-99,385
-99,879
-100,418
-101
-101,621
-102,28
-102,972
-103,693
-104,439
-105,205
-105,988
-106,782
-107,584
-108,388
-109,19
-109,988
-110,776
-111,551
-112,307
-113,038
-113,74
-114,405
-115,03
-115,605
-116,125
-116,582
-116,969
-117,283
-117,515
-117,658
-117,705
-117,643
-117,465
-117,17
-116,757
-116,228
-115,589
-114,848
-114,021
-113,129
-112,188
-111,216
-110,225
-109,217
-108,204
-107,194
-106,194
-105,213
-104,254
-103,304
-102,354
-101,388
-100,375
-99,29
-98,091
-96,721
-95,142
-93,325
-91,253
-88,931
-86,358
-83,539
-80,495
-77,252
-73,841
-70,319
-66,733
-63,131
-59,586
-56,164
-52,946
-50,037
-47,511
-45,423
-43,811
-42,681
-42,036
-41,877
-42,178
-42,902
-44,009
-45,446
-47,175
-49,178
-51,421
-53,873
-56,49
-59,195
-61,92
-64,619
-67,289
-69,961
-72,688
-75,528
-78,489
-81,602
-84,94
-88,474
-92,087
-95,576
-98,534
-100,571
-101,575
-101,46
-100,168
-97,962
-95,013
-91,513
-88,159
-85,48
-83,479
-82,124
-80,936
-78,743
-74,706
-68,061
-57,408
-41,688
-20,336
7,24
40,664
78,418
119,174
161,519
203,409
243,05
278,703
308,283
330,615
345,681
353,518
354,329
348,718
337,076
319,988
298,697
274,109
246,516
216,325
184,09
150,489
116,817
84,56
54,684
28,171
6,11
-10,781
-22,131
-27,989
-29,269
-27,387
-23,494
-18,696
-13,944
-9,796
-6,605
-4,44
-2,823
-0,97
1,677
5,512
10,672
16,999
24,274
32,198
40,318
48,099
55,16
61,275
66,355
70,459
73,646
75,955
77,443
78,201
78,31
77,859
76,964
75,721
74,247
72,695
71,203
69,915
68,95
68,376
68,225
68,508
69,221
70,365
71,961
73,996
76,432
79,211
82,246
85,456
88,761
92,062
95,25
98,205
100,826
103,055
104,876
106,298
107,344
108,045
108,434
108,577
108,577
108,548
108,628
108,934
109,576
110,682
112,389
114,851
118,206
122,546
127,914
134,319
141,747
150,163
159,511
169,697
180,581
192,001
203,774
215,719
227,652
239,367
250,631
261,189
270,79
279,22
286,31
291,932
295,982
298,382
299,078
298,045
295,309
290,928
284,986
277,59
268,871
258,994
248,161
236,614
224,609
212,389
200,173
188,138
176,442
165,226
154,617
144,736
135,666
127,457
120,141
113,72
108,172
103,449
99,469
96,106
93,218
90,657
88,282
85,99
83,698
81,33
78,819
76,095
73,107
69,828
66,244
62,354
58,17
53,715
49,025
44,173
39,241
34,315
29,487
24,817
20,352
16,133
12,193
8,565
5,273
2,327
-0,273
-2,527
-4,437
-6,007
-7,247
-8,181
-8,843
-9,266
-9,49
-9,542
-9,444
-9,216
-8,875
-8,437
-7,915
-7,318
-6,65
-5,921
-5,141
-4,324
-3,481
-2,622
-1,755
-0,886
-0,023
0,827
1,653
2,449
3,204
3,908
4,552
5,124
5,615
6,015
6,318
6,519
6,612
6,595
6,464
6,217
5,853
5,372
4,773
4,058
3,227
2,282
1,226
0,062
-1,205
-2,571
-4,031
-5,58
-7,212
-8,92
-10,698
-12,539
-14,436
-16,382
-18,369
-20,388
-22,432
-24,492
-26,559
-28,625
-30,681
-32,72
-34,734
-36,716
-38,658
-40,555
-42,401
-44,191
-45,919
-47,58
-49,171
-50,689
-52,129
-53,49
-54,769
-55,964
-57,074
-58,098
-59,035
-59,885
-60,646
-61,317
-61,899
-62,391
-62,792
-63,101
-63,317
-63,442
-63,476
-63,42
-63,277
-63,048
-62,738
-62,35
-61,886
-61,35
-60,743
-60,064
-59,313
-58,492
-57,597
-56,629
-55,589
-54,475
-53,291
-52,041
-50,726
-49,348
-47,908
-46,402
-44,831
-43,2
-41,513
-39,778
-38,009
-36,222
-34,44
-32,688
-30,984
-29,342
-27,768
-26,259
-24,812
-23,425
-22,092
-20,816
-19,599
-18,439
-17,338
-16,291
-15,285
-14,3
-13,307
-12,263
-11,144
-9,939
-8,644
-7,278
-5,861
-4,421
-2,992
-1,596
-0,243
1,051
2,278
3,426
4,466
5,37
6,105
6,623
6,89
6,885
6,587
5,998
5,131
4,007
2,648
1,057
-0,786
-2,907
-5,315
-8,006
-10,949
-14,117
-17,514
-21,147
-25,032
-29,167
-33,508
-37,974
-42,542
-47,234
-51,988
-56,627
-60,807
-64,137
-66,425
-67,719
-68,099
-67,478
-65,729
-62,849
-59,203
-55,389
-51,728
-48,074
-43,918
-38,866
-32,73
-25,365
-16,257
-4,489
10,705
29,632
51,897
76,741
103,368
131,08
158,945
185,548
209,399
228,915
242,835
250,681
252,377
247,712
236,597
219,096
195,178
165,728
132,283
95,794
57,046
17,142
-22,833
-61,027
-94,745
-122,392
-143,406
-157,13
-163,349
-162,092
-153,284
-138,336
-120,04
-100,63
-81,905
-65,382
-51,791
-42,002
-37,197
-37,242
-40,915
-46,948
-53,809
-60,454
-66,594
-71,641
-74,747
-75,712
-74,786
-72,524
-69,91
-67,485
-65,291
-63,498
-62,303
-61,765
-61,879
-62,404
-62,858
-62,978
-62,704
-62,001
-60,906
-59,422
-57,515
-55,228
-52,661
-49,881
-46,929
-43,811
-40,506
-37,014
-33,361
-29,574
-25,68
-21,688
-17,6
-13,415
-9,131
-4,746
-0,256
4,346
9,062
13,888
18,817
23,834
28,922
34,064
39,239
44,43
49,625
54,809
59,971
65,097
70,172
75,179
80,1
84,923
89,644
94,268
98,801
103,257
107,65
112,004
116,348
120,701
125,071
129,457
133,852
138,244
142,615
146,945
151,208
155,375
159,404
163,245
166,833
170,096
172,956
175,329
177,124
178,263
178,687
178,34
177,175
175,16
172,28
168,529
163,911
158,434
152,107
144,962
137,063
128,484
119,32
109,668
99,633
89,323
78,843
68,305
57,827
47,504
37,411
27,619
18,19
9,191
0,707
-7,21
-14,542
-21,278
-27,43
-33,014
-38,042
-42,552
-46,593
-50,229
-53,539
-56,579
-59,384
-61,993
-64,438
-66,765
-69,034
-71,285
-73,531
-75,786
-78,051
-80,33
-82,631
-84,943
-87,233
-89,463
-91,587
-93,572
-95,406
-97,077
-98,574
-99,883
-100,985
-101,874
-102,559
-103,046
-103,343
-103,458
-103,394
-103,167
-102,805
-102,339
-101,801
-101,216
-100,602
-99,974
-99,348
-98,737
-98,154
-97,605
-97,091
-96,617
-96,186
-95,804
-95,476
-95,205
-94,987
-94,822
-94,706
-94,638
-94,618
-94,643
-94,714
-94,828
-94,987
-95,19
-95,44
-95,737
-96,077
-96,46
-96,883
-97,343
-97,836
-98,359
-98,907
-99,476
-100,062
-100,66
-101,267
-101,878
-102,489
-103,096
-103,695
-104,282
-104,853
-105,407
-105,938
-106,445
-106,926
-107,376
-107,794
-108,178
-108,524
-108,831
-109,096
-109,318
-109,494
-109,623
-109,703
-109,734
-109,716
-109,646
-109,526
-109,355
-109,134
-108,864
-108,546
-108,183
-107,777
-107,329
-106,841
-106,317
-105,759
-105,166
-104,543
-103,889
-103,205
-102,492
-101,75
-100,979
-100,179
-99,351
-98,496
-97,615
-96,709
-95,78
-94,83
-93,86
-92,871
-91,861
-90,831
-89,777
-88,698
-87,591
-86,455
-85,289
-84,089
-82,857
-81,594
-80,298
-78,967
-77,599
-76,186
-74,726
-73,219
-71,67
-70,084
-68,473
-66,854
-65,245
-63,666
-62,13
-60,645
-59,213
-57,828
-56,484
-55,171
-53,89
-52,647
-51,447
-50,294
-49,191
-48,133
-47,107
-46,087
-45,045
-43,945
-42,77
-41,52
-40,209
-38,869
-37,537
-36,261
-35,078
-34,009
-33,062
-32,232
-31,512
-30,898
-30,405
-30,063
-29,908
-29,982
-30,306
-30,871
-31,655
-32,62
-33,714
-34,87
-36,04
-37,193
-38,327
-39,492
-40,75
-42,149
-43,726
-45,475
-47,365
-49,389
-51,569
-53,956
-56,625
-59,62
-62,943
-66,631
-70,731
-75,202
-79,926
-84,605
-88,762
-92,08
-94,444
-95,783
-96,093
-95,418
-93,699
-91,106
-88,217
-85,261
-82,151
-78,712
-74,385
-68,596
-61,132
-51,533
-38,878
-22,71
-2,722
21,388
49,11
79,782
112,973
147,75
182,821
217,204
249,412
277,525
300,258
316,376
324,66
324,543
315,482
296,771
268,839
233,159
191,377
145,651
98,279
51,261
7,159
-31,018
-61,363
-83,112
-96,149
-101,219
-99,39
-91,771
-80,292
-67,561
-55,475
-45,175
-37,289
-31,772
-28,42
-27,041
-26,915
-26,899
-26,274
-24,716
-22,175
-18,96
-15,345
-11,5
-7,765
-4,585
-2,202
-0,706
-0,056
-0,049
-0,522
-1,361
-2,417
-3,534
-4,581
-5,433
-5,995
-6,228
-6,094
-5,56
-4,611
-3,228
-1,414
0,81
3,411
6,36
9,624
13,177
16,993
21,043
25,296
29,716
34,268
38,929
43,685
48,523
53,437
58,419
63,467
68,587
73,784
79,065
84,428
89,87
95,385
100,966
106,609
112,307
118,051
123,83
129,629
135,436
141,234
147,007
152,736
158,4
163,978
169,447
174,787
179,978
184,998
189,826
194,44
198,82
202,945
206,794
210,344
213,576
216,469
219,002
221,158
222,919
224,269
225,193
225,678
225,716
225,297
224,415
223,067
221,25
218,967
216,22
213,014
209,355
205,251
200,712
195,749
190,377
184,61
178,465
171,965
165,129
157,985
150,56
142,88
134,976
126,875
118,609
110,208
101,704
93,126
84,505
75,875
67,271
58,731
50,291
41,98
33,823
25,84
18,045
10,453
3,077
-4,078
-11,001
-17,678
-24,089
-30,205
-35,996
-41,443
-46,535
-51,272
-55,658
-59,68
-63,33
-66,596
-69,457
-71,898
-73,901
-75,432
-76,474
-77,035
-77,136
-76,831
-76,184
-75,242
-74,045
-72,625
-71,005
-69,227
-67,332
-65,355
-63,343
-61,347
-59,421
-57,647
-56,087
-54,77
-53,706
-52,867
-52,206
-51,695
-51,316
-51,049
-50,887
-50,814
-50,815
-50,888
-51,024
-51,204
-51,4
-51,563
-51,651
-51,649
-51,559
-51,404
-51,228
-51,056
-50,908
-50,808
-50,767
-50,796
-50,902
-51,079
-51,317
-51,617
-51,985
-52,438
-52,993
-53,652
-54,41
-55,253
-56,158
-57,11
-58,093
-59,088
-60,084
-61,07
-62,039
-62,994
-63,938
-64,87
-65,788
-66,687
-67,56
-68,403
-69,215
-69,994
-70,743
-71,459
-72,145
-72,803
-73,435
-74,04
-74,619
-75,168
-75,684
-76,165
-76,609
-77,015
-77,382
-77,71
-78
-78,252
-78,469
-78,652
-78,803
-78,923
-79,013
-79,075
-79,112
-79,125
-79,116
-79,088
-79,044
-78,986
-78,919
-78,846
-78,769
-78,692
-78,619
-78,554
-78,5
-78,461
-78,443
-78,448
-78,482
-78,549
-78,654
-78,8
-78,99
-79,229
-79,518
-79,861
-80,258
-80,708
-81,212
-81,769
-82,377
-83,035
-83,74
-84,491
-85,283
-86,116
-86,985
-87,887
-88,815
-89,765
-90,727
-91,697
-92,664
-93,622
-94,561
-95,468
-96,334
-97,152
-97,911
-98,598
-99,2
-99,698
-100,079
-100,336
-100,463
-100,457
-100,317
-100,045
-99,652
-99,154
-98,567
-97,903
-97,169
-96,364
-95,494
-94,569
-93,599
-92,605
-91,591
-90,552
-89,479
-88,362
-87,177
-85,895
-84,467
-82,824
-80,918
-78,713
-76,185
-73,337
-70,162
-66,652
-62,804
-58,612
-54,082
-49,247
-44,14
-38,798
-33,285
-27,68
-22,095
-16,679
-11,55
-6,806
-2,523
1,257
4,489
7,123
9,116
10,424
11,008
10,853
9,942
8,256
5,799
2,596
-1,274
-5,671
-10,461
-15,538
-20,839
-26,334
-32,002
-37,801
-43,639
-49,427
-55,116
-60,571
-65,573
-69,828
-72,899
-74,418
-74,333
-72,64
-69,324
-64,639
-58,826
-52,19
-45,416
-38,986
-32,874
-27,037
-21,273
-14,894
-7,371
1,835
13,648
28,643
46,998
68,98
94,598
123,276
154,402
187,235
220,766
254,068
285,978
314,813
338,646
355,758
364,719
364,295
353,338
331,092
297,789
254,787
204,533
150,046
94,285
40,315
-8,455
-48,987
-79,374
-98,906
-108,159
-108,622
-101,999
-90,331
-76,277
-62,444
-50,643
-41,908
-36,499
-34,065
-34,147
-36,119
-38,921
-41,451
-43,077
-43,554
-42,961
-41,621
-39,798
-37,732
-35,806
-34,408
-33,726
-33,797
-34,513
-35,67
-37,115
-38,73
-40,373
-41,903
-43,187
-44,108
-44,608
-44,671
-44,282
-43,432
-42,11
-40,307
-38,044
-35,358
-32,286
-28,865
-25,129
-21,104
-16,825
-12,33
-7,663
-2,867
2,028
7,004
12,043
17,134
22,263
27,419
32,604
37,827
43,095
48,411
53,771
59,169
64,6
70,058
75,531
81
86,435
91,809
97,094
102,265
107,301
112,176
116,862
121,337
125,582
129,587
133,353
136,883
140,185
143,288
146,23
149,064
151,861
154,682
157,581
160,623
163,861
167,347
171,13
175,232
179,656
184,395
189,418
194,684
200,132
205,66
211,139
216,432
221,379
225,831
229,651
232,67
234,728
235,679
235,387
233,764
230,757
226,329
220,472
213,22
204,654
194,918
184,211
172,724
160,669
148,264
135,745
123,415
111,604
100,634
90,806
82,394
75,676
70,86
68,074
67,306
68,386
71,099
75,287
80,865
87,756
96,094
106,188
118,401
133,272
151,195
172,175
195,887
221,722
248,546
274,853
299,131
319,737
335,324
345,188
349,148
347,528
341,312
331,91
320,653
308,915
297,812
287,962
279,638
272,762
266,822
261,089
255,031
248,236
240,474
231,758
222,168
211,894
201,3
190,818
180,753
171,28
162,475
154,318
146,822
140,007
133,84
128,249
123,168
118,538
114,309
110,465
106,978
103,784
100,82
98,009
95,275
92,566
89,847
87,071
84,189
81,154
77,93
74,503
70,88
67,072
63,098
58,976
54,723
50,372
45,962
41,538
37,154
32,845
28,63
24,534
20,582
16,795
13,192
9,779
6,541
3,464
0,532
-2,271
-4,957
-7,545
-10,054
-12,503
-14,908
-17,271
-19,585
-21,849
-24,071
-26,264
-28,452
-30,648
-32,856
-35,075
-37,299
-39,527
-41,763
-44,006
-46,255
-48,521
-50,825
-53,206
-55,717
-58,393
-61,245
-64,255
-67,38
-70,579
-73,821
-77,099
-80,413
-83,749
-87,061
-90,305
-93,448
-96,468
-99,359
-102,043
-104,352
-106,201
-107,624
-108,817
-110,062
-111,465
-112,895
-114,178
-115,259
-116,095
-116,553
-116,107
-113,989
-109,857
-103,925
-96,89
-89,52
-82,283
-75,508
-70,043
-67,082
-67,385
-71,106
-77,374
-84,834
-92,707
-100,574
-107,653
-112,916
-115,466
-114,662
-111,066
-106,009
-100,249
-94,188
-88,269
-82,91
-78,709
-76,379
-75,779
-76,135
-76,996
-78,083
-79,27
-80,622
-81,969
-82,949
-83,54
-83,994
-84,485
-85,164
-86,04
-86,968
-87,909
-88,908
-89,95
-90,975
-91,894
-92,603
-93,068
-93,32
-93,393
-93,315
-93,114
-92,8
-92,409
-91,993
-91,588
-91,224
-90,912
-90,667
-90,523
-90,537
-90,785
-91,324
-92,17
-93,316
-94,741
-96,418
-98,314
-100,392
-102,591
-104,85
-107,165
-109,542
-112,002
-114,553
-117,149
-119,735
-122,272
-124,747
-127,2
-129,688
-132,235
-134,889
-137,742
-140,776
-143,926
-147,016
-149,678
-151,592
-152,549
-152,376
-150,977
-148,525
-145,369
-142,029
-139,168
-137,172
-136,146
-135,954
-136,306
-136,585
-135,712
-132,45
-125,558
-114,239
-98,182
-77,451
-52,106
-22,408
10,647
45,851
81,864
117,525
152,132
185,018
214,885
240,053
259,263
271,301
275,24
270,313
255,336
229,488
193,324
148,537
97,243
42,087
-14,319
-69,452
-119,984
-162,616
-195,439
-217,721
-229,462
-231,594
-225,225
-211,445
-192,513
-171,31
-149,938
-130,03
-112,95
-99,212
-89,258
-83,776
-82,445
-84,186
-88,198
-93,491
-98,919
-103,988
-108,189
-110,699
-111,324
-110,289
-107,766
-104,31
-100,656
-97,08
-93,82
-91,224
-89,323
-88,052
-87,347
-86,881
-86,273
-85,365
-84,051
-82,27
-80,072
-77,472
-74,481
-71,186
-67,675
-63,999
-60,196
-56,268
-52,201
-48,012
-43,73
-39,388
-35,017
-30,633
-26,246
-21,858
-17,473
-13,09
-8,698
-4,284
0,153
4,616
9,101
13,595
18,085
22,555
26,98
31,346
35,647
39,877
44,04
48,135
52,159
56,11
59,987
63,787
67,515
71,168
74,739
78,232
81,66
85,049
88,444
91,868
95,322
98,797
102,267
105,702
109,068
112,316
115,38
118,204
120,733
122,929
124,766
126,203
127,19
127,66
127,531
126,747
125,28
123,113
120,246
116,695
112,488
107,682
102,362
96,602
90,46
83,988
77,218
70,196
62,986
55,655
48,282
40,931
33,648
26,481
19,466
12,628
5,98
-0,489
-6,815
-13,016
-19,099
-25,06
-30,885
-36,565
-42,1
-47,485
-52,72
-57,8
-62,718
-67,47
-72,055
-76,465
-80,683
-84,687
-88,443
-91,927
-95,124
-98,026
-100,629
-102,932
-104,934
-106,64
-108,059
-109,2
-110,07
-110,679
-111,03
-111,133
-111,001
-110,648
-110,093
-109,351
-108,436
-107,364
-106,15
-104,806
-103,345
-101,778
-100,114
-98,361
-96,531
-94,633
-92,677
-90,675
-88,635
-86,567
-84,481
-82,384
-80,285
-78,191
-76,107
-74,04
-71,996
-69,979
-67,995
-66,048
-64,143
-62,282
-60,471
-58,713
-57,01
-55,364
-53,778
-52,253
-50,791
-49,393
-48,06
-46,793
-45,595
-44,467
-43,409
-42,426
-41,516
-40,684
-39,928
-39,251
-38,654
-38,137
-37,701
-37,345
-37,072
-36,88
-36,77
-36,741
-36,793
-36,924
-37,134
-37,42
-37,78
-38,212
-38,713
-39,28
-39,911
-40,602
-41,351
-42,153
-43,007
-43,908
-44,851
-45,834
-46,851
-47,897
-48,968
-50,059
-51,164
-52,278
-53,395
-54,511
-55,619
-56,715
-57,792
-58,845
-59,87
-60,862
-61,815
-62,726
-63,59
-64,405
-65,167
-65,873
-66,521
-67,109
-67,635
-68,097
-68,492
-68,819
-69,077
-69,263
-69,376
-69,416
-69,38
-69,268
-69,079
-68,813
-68,47
-68,048
-67,549
-66,972
-66,318
-65,588
-64,781
-63,899
-62,944
-61,916
-60,816
-59,646
-58,406
-57,098
-55,722
-54,278
-52,768
-51,192
-49,551
-47,847
-46,081
-44,255
-42,373
-40,439
-38,457
-36,433
-34,371
-32,28
-30,164
-28,031
-25,886
-23,735
-21,584
-19,439
-17,308
-15,197
-13,116
-11,071
-9,072
-7,128
-5,248
-3,443
-1,718
-0,08
1,464
2,906
4,232
5,425
6,473
7,366
8,095
8,658
9,052
9,282
9,365
9,328
9,202
9,015
8,786
8,531
8,269
8,025
7,834
7,735
7,753
7,908
8,209
8,654
9,239
9,938
10,691
11,404
11,969
12,296
12,326
12,013
11,314
10,155
8,429
6,048
2,97
-0,821
-5,278
-10,365
-16,11
-22,372
-28,848
-35,209
-41,038
-46,077
-50,359
-53,743
-55,868
-56,629
-55,998
-53,95
-50,801
-46,461
-40,355
-32,399
-22,726
-11,175
2,268
17,622
35,38
55,5
77,52
101,702
128,247
156,836
187,183
218,783
250,642
281,912
311,571
337,562
357,863
371,076
375,961
371,55
357,132
332,318
297,682
255,243
207,561
156,987
105,939
56,994
13,07
-23,057
-49,769
-66,862
-74,999
-75,099
-68,365
-56,437
-41,674
-26,684
-13,275
-2,335
5,87
11,395
14,418
15,335
15,032
14,647
14,867
15,924
17,75
20,079
22,691
25,409
27,896
29,75
30,762
30,904
30,284
29,127
27,607
25,853
24,019
22,264
20,723
19,506
18,67
18,223
18,177
18,54
19,317
20,51
22,099
24,051
26,335
28,919
31,772
34,869
38,182
41,68
45,33
49,102
52,97
56,925
60,959
65,072
69,266
73,544
77,906
82,36
86,91
91,552
96,277
101,064
105,887
110,728
115,574
120,42
125,264
130,102
134,929
139,739
144,527
149,291
154,027
158,729
163,38
167,981
172,54
177,077
181,634
186,23
190,863
195,522
200,178
204,796
209,337
213,748
217,957
221,904
225,531
228,795
231,667
234,104
236,048
237,433
238,172
238,202
237,494
236,026
233,795
230,815
227,111
222,74
217,787
212,323
206,409
200,094
193,408
186,4
179,131
171,668
164,09
156,461
148,83
141,242
133,739
126,342
119,066
111,901
104,811
97,778
90,798
83,874
77,023
70,256
63,577
56,992
50,508
44,13
37,872
31,741
25,742
19,89
14,205
8,713
3,455
-1,542
-6,258
-10,679
-14,799
-18,611
-22,11
-25,297
-28,178
-30,759
-33,043
-35,037
-36,743
-38,169
-39,325
-40,225
-40,886
-41,322
-41,547
-41,577
-41,425
-41,107
-40,635
-40,022
-39,28
-38,42
-37,457
-36,403
-35,274
-34,082
-32,841
-31,563
-30,262
-28,95
-27,637
-26,336
-25,054
-23,802
-22,589
-21,422
-20,309
-19,256
-18,269
-17,354
-16,514
-15,754
-15,075
-14,48
-13,97
-13,547
-13,209
-12,957
-12,79
-12,705
-12,702
-12,776
-12,925
-13,145
-13,433
-13,785
-14,196
-14,662
-15,179
-15,742
-16,345
-16,985
-17,657
-18,355
-19,075
-19,811
-20,559
-21,314
-22,072
-22,829
-23,58
-24,323
-25,054
-25,771
-26,47
-27,15
-27,808
-28,444
-29,055
-29,642
-30,204
-30,742
-31,256
-31,747
-32,217
-32,668
-33,101
-33,518
-33,921
-34,312
-34,692
-35,063
-35,429
-35,792
-36,153
-36,517
-36,886
-37,264
-37,653
-38,057
-38,479
-38,92
-39,384
-39,872
-40,386
-40,929
-41,501
-42,105
-42,743
-43,415
-44,122
-44,865
-45,645
-46,459
-47,309
-48,193
-49,11
-50,059
-51,04
-52,051
-53,092
-54,162
-55,259
-56,382
-57,529
-58,698
-59,885
-61,087
-62,3
-63,519
-64,74
-65,961
-67,176
-68,383
-69,578
-70,758
-71,923
-73,068
-74,192
-75,29
-76,358
-77,391
-78,385
-79,335
-80,235
-81,081
-81,866
-82,586
-83,239
-83,822
-84,333
-84,765
-85,107
-85,356
-85,512
-85,574
-85,549
-85,442
-85,26
-85,016
-84,735
-84,436
-84,138
-83,851
-83,57
-83,295
-83,028
-82,77
-82,527
-82,293
-82,047
-81,778
-81,475
-81,126
-80,72
-80,226
-79,589
-78,769
-77,737
-76,487
-75,043
-73,424
-71,643
-69,729
-67,714
-65,647
-63,597
-61,603
-59,681
-57,854
-56,145
-54,604
-53,318
-52,348
-51,723
-51,453
-51,507
-51,863
-52,508
-53,405
-54,501
-55,736
-57,042
-58,408
-59,875
-61,469
-63,202
-65,047
-66,941
-68,87
-70,864
-72,975
-75,281
-77,823
-80,634
-83,789
-87,299
-91,095
-95,024
-98,774
-101,984
-104,392
-105,789
-106,012
-105,192
-103,642
-101,711
-99,868
-98,489
-97,764
-97,757
-98,434
-99,179
-98,821
-96,209
-90,247
-80,028
-64,919
-44,348
-17,644
15,016
52,25
92,52
134,225
175,753
215,689
252,175
282,575
304,905
318,567
323,227
318,808
305,292
282,411
250,927
213,088
171,181
126,808
81,617
37,195
-4,442
-40,554
-69,437
-90,856
-105,044
-112,344
-113,381
-108,896
-100,407
-90,409
-80,724
-72,236
-65,435
-60,427
-57,202
-55,773
-55,622
-55,624
-55,048
-53,642
-51,378
-48,529
-45,34
-41,934
-38,621
-35,898
-34,064
-33,236
-33,424
-34,471
-36,229
-38,596
-41,396
-44,404
-47,442
-50,35
-53,002
-55,342
-57,313
-58,851
-59,928
-60,519
-60,603
-60,188
-59,269
-57,826
-55,867
-53,415
-50,513
-47,231
-43,631
-39,761
-35,675
-31,415
-27,007
-22,478
-17,834
-13,068
-8,183
-3,183
1,921
7,101
12,336
17,611
22,911
28,225
33,546
38,858
44,151
49,422
54,654
59,83
64,932
69,928
74,798
79,54
84,152
88,644
93,039
97,356
101,623
105,878
110,139
114,42
118,733
123,073
127,441
131,834
136,234
140,625
144,985
149,261
153,398
157,324
160,933
164,128
166,807
168,851
170,181
170,719
170,387
169,127
166,884
163,611
159,291
153,912
147,46
139,962
131,465
122,044
111,823
100,922
89,464
77,589
65,412
53,054
40,65
28,326
16,204
4,405
-6,976
-17,845
-28,096
-37,656
-46,479
-54,546
-61,881
-68,51
-74,457
-79,761
-84,454
-88,583
-92,211
-95,404
-98,229
-100,754
-103,034
-105,126
-107,1
-109,006
-110,88
-112,741
-114,579
-116,388
-118,164
-119,9
-121,583
-123,195
-124,706
-126,085
-127,297
-128,313
-129,112
-129,674
-129,977
-130,007
-129,761
-129,242
-128,469
-127,459
-126,226
-124,788
-123,165
-121,38
-119,461
-117,439
-115,343
-113,203
-111,04
-108,877
-106,735
-104,629
-102,576
-100,585
-98,661
-96,811
-95,044
-93,365
-91,782
-90,3
-88,921
-87,649
-86,485
-85,43
-84,487
-83,656
-82,939
-82,336
-81,848
-81,476
-81,221
-81,081
-81,057
-81,145
-81,342
-81,644
-82,047
-82,546
-83,136
-83,811
-84,566
-85,395
-86,292
-87,251
-88,266
-89,33
-90,436
-91,576
-92,743
-93,928
-95,125
-96,325
-97,52
-98,703
-99,866
-101,003
-102,107
-103,172
-104,191
