Name,Yannick Börner
Date of Birth,"29. Sep 1994"
Recorded Date,2019-12-18 12:09:23 +0100
Classification,Sinus Rhythm
Symptoms,
Software Version,1.18
Device,"Watch4,1"
Sample Rate,511,68 hertz


Lead,Lead I
Unit,µV

-6,194
-8,175
-10,016
-11,83
-13,724
-15,796
-18,085
-20,632
-23,509
-26,716
-30,19
-33,79
-37,232
-40,268
-42,853
-44,961
-46,574
-47,847
-48,88
-49,857
-51,288
-53,524
-56,523
-60,117
-63,889
-67,097
-69,223
-69,705
-67,634
-62,502
-54,288
-43,241
-30,174
-16,193
-2,14
11,024
22,133
30,568
36,065
38,722
39,209
38,006
35,397
31,84
27,525
22,251
15,721
6,95
-4,268
-17,421
-33,479
-52,448
-75,842
-105,187
-136,244
-165,474
-188,111
-199,1
-201,685
-198,908
-193,4
-189,541
-185,905
-181,129
-176,017
-169,953
-164,144
-159,847
-156,521
-153,698
-150,997
-148,009
-144,51
-140,47
-135,989
-131,159
-126,42
-122,338
-118,903
-115,99
-113,587
-111,505
-109,575
-107,734
-105,65
-102,96
-99,755
-96,131
-92,107
-87,825
-83,297
-78,492
-73,542
-68,569
-63,507
-58,326
-53,026
-47,57
-42,024
-36,461
-30,888
-25,33
-19,839
-14,454
-9,215
-4,157
0,721
5,42
9,933
14,26
18,394
22,335
26,086
29,651
33,033
36,233
39,257
42,109
44,797
47,328
49,708
51,945
54,047
56,022
57,879
59,625
61,273
62,833
64,315
65,728
67,082
68,384
69,647
70,883
72,101
73,307
74,506
75,7
76,889
78,075
79,252
80,407
81,529
82,607
83,633
84,612
85,544
86,427
87,261
88,04
88,768
89,461
90,132
90,787
91,435
92,081
92,739
93,443
94,221
95,094
96,071
97,143
98,306
99,564
100,915
102,352
103,852
105,367
106,861
108,311
109,698
111,006
112,208
113,249
114,086
114,695
115,064
115,195
115,082
114,699
114,019
113,038
111,773
110,26
108,526
106,577
104,413
102,04
99,479
96,761
93,907
90,928
87,827
84,615
81,327
78,018
74,761
71,647
68,755
66,121
63,795
61,843
60,353
59,456
59,313
60,033
61,708
64,614
69,09
75,237
83,158
92,857
103,828
116,648
131,89
148,12
164,72
179,097
188,365
195,635
203,301
215,045
235,571
261,449
289,644
318,123
343,027
365,819
387,482
406,378
421,746
431,077
431,841
422,888
403,597
374,626
337,48
294,227
247,749
200,909
156,457
117,569
85,709
60,059
41,178
30,038
27,81
38,253
59,505
83,822
104,326
112,506
106,769
94,524
81,924
75,392
77,201
82,954
89,723
95,483
99,343
103,137
107,606
112,393
117,224
121,372
124,515
126,868
128,536
129,603
130,174
130,31
130,096
129,623
128,971
128,229
127,512
126,936
126,591
126,536
126,808
127,442
128,46
129,859
131,631
133,757
136,23
139,064
142,266
145,825
149,71
153,864
158,219
162,716
167,307
171,954
176,627
181,309
185,988
190,667
195,349
200,03
204,695
209,317
213,87
218,332
222,687
226,929
231,062
235,094
239,036
242,9
246,683
250,377
253,962
257,419
260,736
263,902
266,915
269,773
272,473
275,021
277,432
279,702
281,818
283,748
285,44
286,85
287,951
288,715
289,129
289,178
288,837
288,088
286,919
285,314
283,265
280,758
277,756
274,251
270,252
265,786
260,911
255,674
250,107
244,24
238,094
231,679
225,012
218,101
210,936
203,513
195,822
187,856
179,63
171,156
162,426
153,431
144,138
134,515
124,557
114,27
103,676
92,828
81,784
70,616
59,426
48,323
37,424
26,854
16,706
7,054
-2,024
-10,457
-18,155
-25,02
-30,984
-36,006
-40,071
-43,198
-45,421
-46,795
-47,422
-47,435
-46,986
-46,237
-45,312
-44,3
-43,285
-42,349
-41,591
-41,128
-41,051
-41,42
-42,281
-43,657
-45,57
-48,012
-50,923
-54,194
-57,687
-61,265
-64,833
-68,33
-71,706
-74,912
-77,881
-80,54
-82,837
-84,736
-86,209
-87,231
-87,757
-87,772
-87,322
-86,49
-85,395
-84,161
-82,846
-81,466
-80,062
-78,673
-77,311
-76,022
-74,81
-73,635
-72,564
-71,741
-71,238
-71,089
-71,42
-72,267
-73,462
-75,052
-76,957
-78,532
-80,525
-83,837
-87,235
-90,676
-91,437
-85,013
-74,586
-63,843
-58,428
-67,674
-88,009
-110,978
-129,149
-131,482
-119,551
-103,127
-88,46
-83,092
-87,47
-94,997
-102,414
-107,307
-108,952
-109,808
-110,811
-111,768
-112,811
-113,627
-114,107
-114,56
-115,094
-115,658
-116,278
-116,985
-117,744
-118,516
-119,261
-119,909
-120,418
-120,786
-120,979
-120,95
-120,665
-120,089
-119,195
-117,971
-116,413
-114,521
-112,306
-109,804
-107,067
-104,163
-101,167
-98,158
-95,214
-92,426
-89,893
-87,717
-85,992
-84,809
-84,255
-84,403
-85,307
-87,01
-89,534
-92,861
-96,945
-101,71
-107,058
-112,886
-119,089
-125,544
-132,111
-138,657
-145,05
-151,16
-156,863
-162,034
-166,556
-170,329
-173,268
-175,334
-176,528
-176,876
-176,438
-175,287
-173,503
-171,195
-168,497
-165,535
-162,432
-159,309
-156,283
-153,484
-151,05
-149,101
-147,736
-147,023
-146,992
-147,657
-149,011
-151,025
-153,653
-156,813
-160,389
-164,274
-168,38
-172,612
-176,89
-181,128
-185,22
-189,092
-192,701
-196,01
-199,013
-201,722
-204,138
-206,294
-208,258
-210,104
-211,967
-214,011
-216,301
-218,831
-221,521
-224,172
-226,649
-228,904
-230,764
-231,997
-232,56
-232,538
-232,293
-232,519
-233,585
-235,446
-238,067
-241,333
-244,862
-248,194
-250,33
-249,638
-245
-235,931
-222,062
-203,385
-180,134
-152,439
-121,183
-88,087
-54,488
-21,496
9,727
38,441
63,866
84,867
100,919
111,933
117,523
117,687
112,596
102,004
85,962
64,794
38,374
7,095
-27,929
-66,381
-106,894
-147,275
-186,896
-223,995
-258,257
-291,471
-321,748
-346,056
-359,447
-355,477
-333,922
-300,602
-265,341
-238,945
-227,697
-230,425
-240,827
-252,69
-260,9
-264,636
-267,038
-269,874
-274,349
-280,18
-285,104
-287,075
-285,221
-281,054
-276,038
-273,43
-276,169
-281,198
-286,622
-289,273
-284,81
-277,01
-268,825
-262,179
-260,641
-261,52
-262,124
-261,923
-259,324
-255,299
-251,166
-246,805
-242,458
-238,127
-233,612
-229,108
-224,793
-220,662
-216,743
-213,062
-209,596
-206,32
-203,213
-200,231
-197,329
-194,478
-191,631
-188,737
-185,745
-182,609
-179,289
-175,731
-171,882
-167,694
-163,12
-158,144
-152,779
-147,034
-140,925
-134,471
-127,685
-120,597
-113,245
-105,649
-97,836
-89,822
-81,619
-73,268
-64,813
-56,298
-47,784
-39,31
-30,903
-22,591
-14,396
-6,334
1,571
9,299
16,837
24,142
31,17
37,855
44,11
49,872
55,08
59,683
63,66
66,979
69,608
71,521
72,69
73,081
72,667
71,415
69,294
66,302
62,461
57,828
52,495
46,555
40,108
33,242
26,036
18,573
10,941
3,22
-4,503
-12,132
-19,565
-26,678
-33,345
-39,471
-44,983
-49,846
-54,054
-57,609
-60,531
-62,837
-64,549
-65,699
-66,32
-66,444
-66,11
-65,371
-64,296
-62,98
-61,524
-60,002
-58,475
-56,983
-55,548
-54,19
-52,915
-51,72
-50,597
-49,532
-48,516
-47,541
-46,593
-45,65
-44,678
-43,625
-42,446
-41,108
-39,589
-37,876
-35,961
-33,84
-31,518
-29,008
-26,328
-23,494
-20,521
-17,419
-14,203
-10,892
-7,509
-4,083
-0,636
2,816
6,258
9,68
13,073
16,43
19,749
23,032
26,28
29,496
32,677
35,822
38,93
42,002
45,04
48,045
51,017
53,955
56,86
59,729
62,563
65,359
68,114
70,826
73,493
76,112
78,683
81,205
83,676
86,096
88,464
90,777
93,036
95,238
97,38
99,46
101,475
103,424
105,301
107,104
108,829
110,471
112,026
113,489
114,857
116,125
117,288
118,343
119,287
120,117
120,832
121,428
121,906
122,265
122,504
122,624
122,624
122,505
122,267
121,912
121,441
120,855
120,156
119,348
118,435
117,422
116,314
115,117
113,838
112,484
111,064
109,588
108,062
106,498
104,904
103,295
101,689
100,097
98,53
96,993
95,492
94,029
92,605
91,213
89,842
88,482
87,123
85,764
84,41
83,06
81,713
80,363
78,998
77,618
76,234
74,857
73,5
72,184
70,936
69,801
68,841
68,105
67,628
67,424
67,493
67,837
68,461
69,363
70,54
71,973
73,623
75,463
77,462
79,57
81,727
83,842
85,79
87,479
88,837
89,818
90,402
90,561
90,268
89,517
88,312
86,666
84,61
82,146
79,276
76,023
72,419
68,532
64,463
60,293
56,092
51,909
47,757
43,646
39,576
35,535
31,538
27,584
23,643
19,785
16,119
12,825
10,23
8,507
7,646
7,642
8,445
9,942
12,117
14,749
17,301
19,631
21,932
24,587
28,331
33,732
40,984
50,467
62,854
78,392
96,778
117,327
138,834
160,236
182,162
205,219
228,162
250,71
270,523
285,292
298,816
312,95
330,033
353,034
376,024
393,991
403,273
398,464
380,995
353,537
317,4
276,028
231,597
185,767
141,609
102,201
69,835
45,919
30,877
23,986
23,677
28,351
36,011
44,237
51,433
56,645
59,271
59,461
57,749
54,654
51,041
47,996
46,106
45,61
46,543
48,595
51,412
54,715
58,096
61,107
63,513
65,21
66,201
66,607
66,512
65,946
64,962
63,629
62,019
60,225
58,339
56,422
54,54
52,777
51,218
49,958
49,082
48,601
48,452
48,669
49,362
50,643
52,685
55,5
58,877
62,733
67,113
71,856
76,717
81,402
85,4
88,621
91,508
94,279
97,008
99,966
103,342
107,422
112,941
120,073
128,091
136,607
145,398
153,864
162,741
172,579
181,627
189,455
194,304
193,832
191,141
188,305
188,127
194,628
204,609
215,163
224,127
228,073
229,275
230,117
231,223
234,08
237,785
241,233
244,634
247,849
250,961
254,149
257,184
259,874
262,165
263,987
265,262
265,904
265,842
265,01
263,359
260,858
257,449
253,075
247,709
241,342
233,983
225,674
216,476
206,463
195,745
184,431
172,628
160,458
148,042
135,495
122,942
110,509
98,306
86,447
75,04
64,164
53,884
44,243
35,257
26,925
19,225
12,123
5,586
-0,428
-5,967
-11,085
-15,841
-20,314
-24,563
-28,649
-32,637
-36,572
-40,49
-44,421
-48,373
-52,344
-56,324
-60,296
-64,243
-68,151
-71,994
-75,748
-79,381
-82,85
-86,124
-89,179
-91,987
-94,532
-96,802
-98,788
-100,494
-101,929
-103,104
-104,033
-104,731
-105,208
-105,481
-105,569
-105,493
-105,277
-104,943
-104,508
-103,987
-103,394
-102,742
-102,041
-101,298
-100,515
-99,699
-98,855
-97,987
-97,101
-96,204
-95,299
-94,39
-93,482
-92,578
-91,682
-90,802
-89,94
-89,102
-88,294
-87,521
-86,79
-86,105
-85,472
-84,895
-84,378
-83,923
-83,535
-83,215
-82,965
-82,787
-82,683
-82,653
-82,699
-82,821
-83,018
-83,291
-83,639
-84,06
-84,552
-85,115
-85,744
-86,438
-87,193
-88,006
-88,872
-89,788
-90,749
-91,75
-92,788
-93,856
-94,952
-96,069
-97,202
-98,347
-99,498
-100,65
-101,799
-102,94
-104,067
-105,178
-106,268
-107,334
-108,374
-109,384
-110,363
-111,311
-112,226
-113,108
-113,957
-114,774
-115,561
-116,32
-117,051
-117,758
-118,442
-119,106
-119,754
-120,39
-121,02
-121,646
-122,275
-122,911
-123,56
-124,228
-124,92
-125,64
-126,392
-127,181
-128,015
-128,903
-129,851
-130,864
-131,942
-133,083
-134,284
-135,539
-136,833
-138,145
-139,455
-140,738
-141,974
-143,147
-144,237
-145,223
-146,081
-146,782
-147,301
-147,627
-147,745
-147,653
-147,357
-146,869
-146,218
-145,459
-144,647
-143,841
-143,098
-142,457
-141,959
-141,653
-141,577
-141,772
-142,271
-143,079
-144,198
-145,609
-147,268
-149,117
-151,066
-152,973
-154,682
-156,023
-156,814
-156,904
-156,148
-154,396
-151,507
-147,335
-141,736
-134,593
-125,811
-115,34
-103,155
-89,234
-73,657
-56,63
-38,469
-19,625
-0,556
18,404
36,957
54,806
71,834
88,037
103,588
118,945
134,501
150,446
166,712
182,9
198,292
212,003
222,887
229,495
230,405
224,298
210,549
189,454
161,844
129,029
92,787
55,194
18,794
-13,448
-39,46
-58,29
-69,458
-73,152
-69,986
-60,697
-47,018
-31,616
-16,38
-2,387
9,505
18,989
25,822
29,55
30,736
30,873
30,877
31,217
32,216
33,776
35,98
39,247
43,331
47,416
51,008
53,796
55,666
56,848
57,398
57,158
56,257
55,031
53,753
52,707
52,015
51,589
51,471
51,802
52,675
54,181
56,336
59,039
62,272
66,141
70,561
75,23
80,038
84,974
89,93
95,16
100,043
102,797
103,8
104,619
107,912
118,663
136,441
156,187
172,802
179,075
174,612
166,097
158,713
158,116
165,205
174,944
184,278
191,091
194,808
197,531
200,204
202,793
205,402
207,776
209,935
212,258
214,926
217,976
221,476
225,481
230,02
235,101
240,698
246,735
253,148
259,897
266,929
274,178
281,569
288,984
296,269
303,263
309,79
315,679
320,768
324,891
327,886
329,62
329,991
328,922
326,359
322,245
316,532
309,203
300,272
289,807
277,912
264,71
250,344
234,975
218,782
201,977
184,78
167,385
149,976
132,741
115,872
99,582
84,076
69,507
55,985
43,579
32,331
22,277
13,423
5,74
-0,827
-6,362
-10,951
-14,669
-17,61
-19,893
-21,655
-23,063
-24,269
-25,389
-26,534
-27,776
-29,143
-30,703
-32,54
-34,686
-37,177
-39,998
-43,041
-46,261
-49,682
-53,142
-56,297
-59,008
-61,261
-62,978
-64,473
-65,244
-63,621
-59,979
-55,843
-53,686
-58,446
-69,848
-82,599
-91,615
-89,911
-76,875
-59,628
-43,037
-30,758
-23,121
-16,537
-12,295
-15,919
-31,389
-56,556
-80,7
-89,418
-72,68
-34,84
7,73
38,728
46,299
32,518
11,177
-6,796
-13,514
-8,692
0,463
9,055
13,073
12,186
10,455
11,762
20,723
37,27
55,983
69,604
70,345
56,277
32,31
7,641
-8,992
-12,863
-4,337
9,87
23,988
34,215
38,313
39,612
40,432
40,933
41,795
41,357
38,537
34,457
29,641
24,485
19,519
14,741
10,246
6,497
3,688
1,389
-0,754
-2,887
-5,146
-7,444
-9,704
-12,09
-14,714
-17,449
-20,187
-22,851
-25,364
-27,784
-30,174
-32,51
-34,777
-36,985
-39,141
-41,274
-43,418
-45,574
-47,737
-49,917
-52,115
-54,344
-56,626
-58,961
-61,346
-63,773
-66,224
-68,674
-71,096
-73,455
-75,698
-77,786
-79,679
-81,334
-82,735
-83,873
-84,736
-85,322
-85,626
-85,629
-85,337
-84,789
-83,987
-82,919
-81,638
-80,211
-78,732
-77,395
-76,365
-75,671
-75,528
-76,373
-78,221
-80,902
-84,479
-88,444
-93,134
-100,444
-110,029
-120,09
-128,133
-128,728
-120,833
-110,11
-103,36
-109,806
-134,182
-169,625
-205,443
-230,381
-236,028
-225,715
-209,09
-194,504
-188,695
-191,012
-195,528
-199,054
-199,681
-197,813
-196,068
-194,5
-192,364
-189,6
-185,892
-181,443
-176,508
-170,408
-162,4
-152,718
-141,716
-129,464
-115,757
-100,064
-82,254
-62,871
-42,668
-21,761
0,172
23,164
46,831
70,513
93,744
116,335
138,114
158,208
175,038
187,366
194,387
195,5
190,166
177,925
158,71
133,417
103,842
71,716
38,644
6,318
-23,482
-49,039
-69,175
-83,572
-92,669
-97,11
-97,635
-95,263
-91,342
-87,24
-83,915
-81,835
-81,04
-81,365
-82,634
-84,492
-86,337
-87,625
-88,07
-87,61
-86,414
-84,746
-82,805
-80,831
-79,137
-77,932
-77,319
-77,321
-77,847
-78,783
-80,043
-81,524
-83,113
-84,738
-86,321
-87,783
-89,063
-90,093
-90,812
-91,184
-91,178
-90,771
-89,956
-88,744
-87,161
-85,246
-83,032
-80,542
-77,791
-74,791
-71,568
-68,158
-64,602
-60,934
-57,175
-53,351
-49,493
-45,638
-41,804
-37,989
-34,17
-30,325
-26,453
-22,562
-18,669
-14,781
-10,894
-7,003
-3,105
0,79
4,676
8,568
12,492
16,469
20,51
24,605
28,72
32,868
37,078
41,35
45,73
50,278
54,997
59,905
65,008
70,206
75,387
80,495
85,282
89,321
92,52
94,96
96,515
97,496
97,552
94,991
90,185
84,819
81,37
85,802
99,738
118,506
135,638
139,063
121,561
87,635
46,23
12,893
-0,168
6,457
25,685
44,689
52,476
47,008
31,625
13,087
-3,162
-15,74
-25,501
-34,43
-43,585
-52,871
-62,061
-70,902
-79,457
-87,988
-96,553
-105,116
-113,635
-122,017
-130,163
-137,973
-145,333
-152,163
-158,433
-164,145
-169,299
-173,893
-177,939
-181,458
-184,491
-187,093
-189,312
-191,191
-192,781
-194,142
-195,33
-196,399
-197,388
-198,321
-199,217
-200,088
-200,942
-201,78
-202,593
-203,367
-204,077
-204,693
-205,192
-205,557
-205,771
-205,816
-205,68
-205,354
-204,837
-204,137
-203,264
-202,226
-201,036
-199,707
-198,258
-196,709
-195,086
-193,412
-191,708
-189,992
-188,276
-186,576
-184,9
-183,258
-181,654
-180,09
-178,568
-177,09
-175,66
-174,28
-172,951
-171,673
-170,446
-169,27
-168,144
-167,069
-166,046
-165,077
-164,161
-163,301
-162,499
-161,756
-161,071
-160,443
-159,872
-159,36
-158,908
-158,516
-158,181
-157,896
-157,662
-157,485
-157,357
-157,26
-157,178
-157,092
-157,001
-156,928
-156,878
-156,819
-156,771
-156,79
-156,917
-157,201
-157,643
-158,163
-158,736
-159,441
-160,186
-160,675
-160,854
-160,803
-160,482
-160,209
-159,36
-156,111
-150,917
-145,424
-142,445
-147,173
-159,129
-173,15
-184,036
-184,402
-174,005
-159,776
-147,049
-141,66
-144,444
-150,208
-155,828
-159,097
-159,414
-158,882
-158,382
-157,834
-157,307
-156,485
-155,321
-154,114
-152,93
-151,758
-150,682
-149,73
-148,866
-147,948
-146,701
-144,992
-142,909
-140,602
-138,231
-135,986
-134,034
-132,775
-132,872
-134,604
-137,83
-142,173
-147,005
-151,787
-156,167
-159,498
-160,84
-159,727
-156,163
-150,56
-143,792
-136,527
-129,132
-122,187
-116,453
-112,378
-110,138
-109,528
-109,909
-110,858
-112,22
-113,774
-115,299
-116,64
-117,684
-118,515
-119,43
-120,602
-122,068
-123,823
-125,786
-127,902
-130,167
-132,53
-134,914
-137,273
-139,579
-141,824
-144,049
-146,276
-148,499
-150,702
-152,825
-154,786
-156,522
-157,963
-159,042
-159,679
-159,772
-159,215
-157,905
-155,734
-152,578
-148,311
-142,793
-135,911
-127,547
-117,582
-106,007
-92,897
-78,424
-62,873
-46,445
-29,275
-11,621
6,193
23,99
41,693
59,524
77,977
97,05
116,441
136,174
156,166
176,099
195,732
213,058
225,645
233,593
236,542
236,029
234,124
227,485
214,297
192,732
160,56
122,961
84,407
48,497
20,297
-0,999
-16,809
-27,499
-35,059
-39,295
-39,796
-37,689
-34,063
-30,272
-27,428
-25,79
-25,235
-25,59
-26,64
-28,028
-29,198
-29,657
-29,145
-27,612
-25,209
-22,146
-18,594
-14,776
-10,978
-7,397
-4,123
-1,184
1,477
3,921
6,166
8,258
10,266
12,236
14,206
16,202
18,214
20,238
22,298
24,408
26,584
28,836
31,156
33,546
36,026
38,626
41,385
44,332
47,479
50,83
54,396
58,187
62,222
66,522
71,09
75,927
81,042
86,441
92,14
98,141
104,423
110,939
117,629
124,44
131,344
138,33
145,384
152,482
159,578
166,62
173,591
180,481
187,286
193,967
200,417
206,591
212,574
218,555
224,766
231,314
238,065
244,87
251,759
258,653
265,295
271,165
275,49
277,871
278,611
278,241
277,135
275,779
274,688
274,696
277,147
282,77
291,182
301,477
312,623
323,47
333,131
340,535
344,032
342,609
336,335
325,903
312,47
297,337
281,364
265,407
250,708
238,101
227,821
219,71
213,128
207,321
201,929
196,709
191,294
185,49
179,221
172,503
165,598
158,809
152,238
145,893
139,76
133,775
127,925
122,225
116,638
111,119
105,663
100,286
95,028
89,951
85,085
80,445
76,046
71,899
68,027
64,463
61,23
58,342
55,805
53,617
51,773
50,267
49,088
48,217
47,635
47,323
47,264
47,448
47,863
48,498
49,339
50,367
51,568
52,927
54,429
56,06
57,807
59,655
61,593
63,61
65,696
67,837
70,024
72,244
74,486
76,737
78,989
81,229
83,45
85,642
87,798
89,912
91,978
93,989
95,941
97,83
99,652
101,404
103,082
104,683
106,206
107,648
109,007
110,282
111,472
112,575
113,592
114,521
115,364
116,119
116,789
117,372
117,87
118,283
118,613
118,86
119,024
119,107
119,109
119,031
118,875
118,64
118,328
117,939
117,473
116,931
116,312
115,617
114,846
113,998
113,075
112,074
110,998
109,847
108,619
107,317
105,941
104,49
102,966
101,369
99,699
97,958
96,145
94,263
92,311
90,293
88,21
86,065
83,861
81,601
79,289
76,931
74,529
72,09
69,617
67,117
64,595
62,057
59,509
56,957
54,408
51,867
49,344
46,846
44,381
41,958
39,585
37,271
35,024
32,855
30,77
28,778
26,887
25,107
23,449
21,925
20,546
19,318
18,246
17,332
16,574
15,968
15,506
15,173
14,957
14,846
14,832
14,91
15,077
15,323
15,639
16,01
16,423
16,872
17,353
17,869
18,429
19,045
19,744
20,568
21,553
22,731
24,12
25,72
27,528
29,54
31,75
34,154
36,743
39,498
42,398
45,418
48,521
51,66
54,766
57,747
60,509
62,967
65,053
66,729
67,964
68,736
69,028
68,829
68,137
66,953
65,279
63,109
60,449
57,319
53,758
49,823
45,586
41,118
36,484
31,748
26,955
22,124
17,267
12,37
7,437
2,513
-2,369
-7,183
-11,835
-16,213
-20,127
-23,244
-25,371
-26,484
-26,561
-25,648
-23,852
-21,195
-17,911
-14,528
-11,241
-7,914
-4,212
0,516
6,807
14,894
25,18
38,335
54,743
74,178
95,727
118,134
140,299
162,48
185,94
209,887
232,87
252,277
263,644
268,705
271,758
276,816
291,412
314,015
338,007
358,478
365,236
356,186
334,082
298,44
253,326
197,937
131,738
61,343
-5,628
-56,723
-82,406
-81,773
-59,788
-26,93
5,495
29,781
43,913
46,864
40,39
28,49
10,71
-8,403
-22,925
-31,318
-28,39
-15,49
-0,11
14,095
21,827
21,725
18,62
14,885
12,397
12,079
11,96
11,196
10,003
8,393
6,806
5,461
4,143
2,81
1,568
0,481
-0,385
-0,956
-1,182
-1,012
-0,39
0,696
2,211
4,125
6,41
9,039
11,991
15,24
18,759
22,522
26,501
30,665
34,984
39,433
44
48,678
53,461
58,347
63,333
68,422
73,613
78,903
84,279
89,721
95,211
100,734
106,28
111,841
117,407
122,961
128,484
133,954
139,362
144,701
149,967
155,158
160,281
165,348
170,387
175,436
180,519
185,649
190,825
196,038
201,277
206,535
211,801
217,053
222,257
227,365
232,327
237,085
241,565
245,683
249,332
252,402
254,802
256,466
257,352
257,436
256,706
255,145
252,738
249,505
245,485
240,727
235,29
229,227
222,58
215,436
207,929
200,13
192,056
183,714
175,078
166,163
157,07
147,829
138,382
128,883
119,663
110,782
102,184
93,91
85,583
77,825
72,387
68,559
64,592
57,86
43,362
21,761
-1,427
-21,593
-32,029
-31,398
-26,142
-19,51
-14,016
-11,66
-8,738
-6,177
-9,787
-21,285
-41,961
-67,679
-86,758
-92,202
-82,418
-61,462
-40,38
-27,379
-24,792
-30,696
-39,113
-45,488
-48,65
-49,192
-48,911
-48,824
-48,845
-48,757
-48,344
-47,668
-46,955
-46,272
-45,611
-44,965
-44,32
-43,666
-42,979
-42,218
-41,362
-40,42
-39,415
-38,368
-37,289
-36,194
-35,107
-34,05
-33,039
-32,086
-31,194
-30,365
-29,606
-28,915
-28,289
-27,724
-27,216
-26,764
-26,368
-26,026
-25,737
-25,497
-25,304
-25,156
-25,052
-24,991
-24,973
-24,997
-25,062
-25,171
-25,324
-25,524
-25,771
-26,064
-26,406
-26,794
-27,23
-27,714
-28,244
-28,822
-29,448
-30,12
-30,841
-31,61
-32,427
-33,294
-34,209
-35,173
-36,187
-37,25
-38,361
-39,521
-40,728
-41,982
-43,281
-44,625
-46,011
-47,438
-48,903
-50,404
-51,939
-53,504
-55,097
-56,715
-58,354
-60,012
-61,685
-63,371
-65,067
-66,77
-68,477
-70,186
-71,893
-73,597
-75,294
-76,981
-78,655
-80,314
-81,954
-83,572
-85,166
-86,733
-88,27
-89,774
-91,243
-92,676
-94,069
-95,421
-96,731
-97,996
-99,216
-100,39
-101,516
-102,595
-103,625
-104,608
-105,542
-106,428
-107,265
-108,053
-108,793
-109,482
-110,121
-110,71
-111,249
-111,737
-112,175
-112,563
-112,903
-113,195
-113,441
-113,643
-113,801
-113,917
-113,993
-114,032
-114,034
-114,002
-113,939
-113,846
-113,726
-113,582
-113,416
-113,23
-113,027
-112,809
-112,577
-112,333
-112,078
-111,815
-111,544
-111,267
-110,987
-110,706
-110,427
-110,156
-109,896
-109,652
-109,426
-109,22
-109,037
-108,876
-108,739
-108,623
-108,527
-108,449
-108,393
-108,364
-108,367
-108,401
-108,464
-108,548
-108,642
-108,74
-108,83
-108,897
-108,93
-108,921
-108,871
-108,789
-108,692
-108,583
-108,454
-108,29
-108,072
-107,796
-107,464
-107,081
-106,66
-106,215
-105,769
-105,367
-105,054
-104,852
-104,764
-104,763
-104,803
-104,868
-104,959
-105,101
-105,324
-105,627
-105,98
-106,347
-106,692
-106,98
-107,173
-107,174
-106,839
-106,105
-105,016
-103,743
-102,495
-101,344
-100,179
-98,852
-97,337
-95,618
-93,561
-90,827
-87,003
-81,966
-76,066
-69,922
-63,976
-58,53
-53,916
-50,639
-49,352
-50,398
-53,52
-58,046
-63,436
-69,336
-75,452
-81,406
-86,623
-90,697
-93,676
-95,937
-97,818
-99,509
-101,102
-102,684
-104,484
-106,706
-109,354
-112,291
-115,387
-118,592
-121,936
-125,481
-129,237
-133,176
-137,287
-141,571
-145,986
-150,436
-154,772
-158,807
-162,349
-165,222
-167,248
-168,235
-167,988
-166,325
-163,07
-158,09
-151,256
-142,439
-131,608
-118,844
-104,34
-88,443
-71,523
-53,882
-35,909
-18,045
-0,508
16,634
33,515
50,55
68,014
85,923
104,355
123,363
142,501
160,935
177,418
190,246
197,96
199,52
193,861
180,036
157,944
128,286
92,516
52,842
11,489
-29,531
-67,926
-101,276
-128,009
-147,434
-159,597
-165,364
-165,815
-162,044
-155,655
-148,609
-142,292
-137,504
-134,614
-133,438
-133,691
-135,125
-137,129
-138,859
-139,818
-139,799
-138,808
-137,133
-135,034
-132,678
-130,346
-128,348
-126,84
-125,878
-125,422
-125,319
-125,454
-125,742
-126,083
-126,391
-126,595
-126,625
-126,433
-125,982
-125,223
-124,122
-122,656
-120,806
-118,577
-115,982
-113,039
-109,777
-106,23
-102,424
-98,387
-94,14
-89,701
-85,095
-80,348
-75,483
-70,528
-65,5
-60,415
-55,285
-50,115
-44,906
-39,653
-34,349
-28,987
-23,565
-18,089
-12,563
-7,002
-1,421
4,164
9,734
15,27
20,758
26,186
31,543
36,815
41,991
47,047
51,96
56,711
61,276
65,66
69,893
74,005
78,035
82,025
85,978
89,926
93,946
98,002
101,986
105,8
109,304
112,492
115,546
118,506
121,263
123,889
126,535
129,365
132,672
136,339
139,785
142,681
144,914
146,228
146,366
144,95
141,343
135,495
127,997
119,22
109,378
98,72
87,375
75,678
64,282
53,394
42,711
32,054
21,275
10,287
-0,783
-11,932
-23,35
-35,018
-46,71
-58,239
-69,375
-79,942
-89,931
-99,31
-108,021
-116,075
-123,484
-130,249
-136,397
-141,93
-146,831
-151,104
-154,75
-157,767
-160,198
-162,098
-163,549
-164,664
-165,524
-166,179
-166,671
-167,016
-167,24
-167,373
-167,433
-167,425
-167,355
-167,228
-167,054
-166,852
-166,614
-166,319
-165,93
-165,393
-164,673
-163,751
-162,617
-161,267
-159,702
-157,922
-155,941
-153,783
-151,467
-149,01
-146,427
-143,725
-140,922
-138,042
-135,112
-132,161
-129,215
-126,288
-123,396
-120,551
-117,761
-115,032
-112,366
-109,76
-107,215
-104,732
-102,314
-99,964
-97,684
-95,472
-93,33
-91,255
-89,246
-87,303
-85,425
-83,615
-81,879
-80,22
-78,636
-77,125
-75,678
-74,289
-72,953
-71,661
-70,4
-69,165
-67,95
-66,762
-65,613
-64,511
-63,459
-62,455
-61,486
-60,552
-59,659
-58,817
-58,036
-57,33
-56,705
-56,182
-55,789
-55,541
-55,438
-55,463
-55,575
-55,748
-55,969
-56,228
-56,524
-56,85
-57,186
-57,518
-57,835
-58,119
-58,357
-58,519
-58,557
-58,448
-58,189
-57,8
-57,327
-56,801
-56,24
-55,658
-55,067
-54,481
-53,919
-53,391
-52,898
-52,449
-52,056
-51,744
-51,555
-51,509
-51,609
-51,843
-52,179
-52,593
-53,076
-53,613
-54,189
-54,793
-55,413
-56,045
-56,697
-57,367
-58,05
-58,734
-59,395
-60,021
-60,61
-61,162
-61,687
-62,19
-62,673
-63,138
-63,593
-64,038
-64,474
-64,898
-65,298
-65,669
-66,007
-66,312
-66,584
-66,825
-67,03
-67,198
-67,326
-67,411
-67,451
-67,442
-67,381
-67,262
-67,086
-66,85
-66,555
-66,203
-65,791
-65,321
-64,792
-64,203
-63,556
-62,849
-62,083
-61,256
-60,369
-59,424
-58,421
-57,362
-56,249
-55,083
-53,866
-52,6
-51,287
-49,929
-48,526
-47,081
-45,596
-44,073
-42,514
-40,922
-39,3
-37,652
-35,98
-34,288
-32,581
-30,861
-29,133
-27,4
-25,668
-23,941
-22,222
-20,518
-18,833
-17,172
-15,541
-13,943
-12,383
-10,866
-9,396
-7,977
-6,612
-5,305
-4,06
-2,88
-1,768
-0,727
0,24
1,131
1,944
2,677
3,33
3,903
4,394
4,806
5,139
5,394
5,574
5,681
5,718
5,688
5,598
5,45
5,252
5,009
4,729
4,419
4,086
3,737
3,382
3,027
2,682
2,353
2,051
1,783
1,558
1,385
1,272
1,227
1,259
1,375
1,581
1,885
2,292
2,807
3,436
4,181
5,048
6,039
7,157
8,404
9,78
11,285
12,917
14,673
16,549
18,536
20,63
22,823
25,105
27,467
29,901
32,397
34,946
37,537
40,16
42,801
45,447
48,084
50,7
53,283
55,82
58,301
60,714
63,05
65,301
67,455
69,502
71,425
73,207
74,831
76,287
77,567
78,668
79,59
80,334
80,907
81,323
81,6
81,755
81,807
81,773
81,676
81,544
81,414
81,33
81,332
81,446
81,687
82,061
82,569
83,21
83,982
84,85
85,768
86,671
87,48
88,124
88,539
88,638
88,305
87,474
86,146
84,414
82,48
80,541
78,713
77,068
75,678
74,47
73,22
71,617
69,189
65,585
60,774
55,006
48,769
42,954
38,729
37,29
39,899
47,519
60,554
78,876
101,861
128,315
156,657
185,361
213,069
238,747
261,822
282,453
301,369
319,634
338,647
358,505
377,911
396,143
412,839
429,586
449,454
471,728
492,01
502,561
493,222
459,209
402,351
328,778
250,909
181,106
126,646
92,949
78,051
73,963
75,516
77,238
76,988
78,283
82,126
88,58
97,369
105,67
111,837
115,733
117,533
118,036
118,043
117,767
116,938
115,44
113,454
111,289
109,156
107,105
105,042
102,999
101,362
100,405
100,062
100,034
100,032
99,938
99,769
99,547
99,153
98,496
97,658
96,872
96,361
96,242
96,536
97,209
98,26
99,718
101,57
103,765
106,248
108,972
111,919
115,094
118,492
122,088
125,844
129,706
133,627
137,567
141,493
145,372
149,174
152,858
156,389
159,741
162,892
165,827
168,535
171,007
173,236
175,221
176,986
178,572
180,033
181,431
182,822
184,254
185,78
187,467
189,377
191,564
194,075
196,946
200,208
203,894
208,039
212,662
217,755
223,285
229,186
235,383
241,797
248,359
254,99
261,599
268,098
274,399
280,424
286,098
291,343
296,07
300,178
303,583
306,215
308,035
309,035
309,221
308,609
307,21
305,043
302,137
298,52
294,217
289,252
283,647
277,427
270,644
263,363
255,644
247,557
239,157
230,476
221,548
212,398
203,054
193,551
183,922
174,203
164,45
154,724
145,091
135,635
126,414
117,474
108,869
100,622
92,763
85,329
78,346
71,842
65,842
60,356
55,388
50,94
46,991
43,507
40,441
37,722
35,291
33,1
31,094
29,239
27,505
25,86
24,283
22,757
21,263
19,795
18,347
16,913
15,498
14,119
12,799
11,578
10,486
9,544
8,774
8,188
7,788
7,578
7,551
7,694
7,993
8,435
8,999
9,674
10,44
11,272
12,146
13,03
13,896
14,724
15,495
16,191
16,801
17,313
17,72
18,022
18,216
18,299
18,271
18,129
17,871
17,5
17,017
16,425
15,726
14,924
14,019
13,016
11,917
10,727
9,449
8,086
6,643
5,125
3,54
1,893
0,194
-1,55
-3,332
-5,142
-6,972
-8,814
-10,659
-12,5
-14,329
-16,139
-17,924
-19,677
-21,392
-23,066
-24,693
-26,27
-27,793
-29,259
-30,667
-32,014
-33,299
-34,522
-35,68
-36,775
-37,807
-38,777
-39,685
-40,533
-41,324
-42,059
-42,742
-43,376
-43,964
-44,511
-45,022
-45,5
-45,951
-46,38
-46,791
-47,19
-47,581
-47,969
-48,358
-48,752
-49,155
-49,571
-50,001
-50,448
-50,914
-51,4
-51,906
-52,432
-52,979
-53,545
-54,13
-54,733
-55,352
-55,986
-56,633
-57,292
-57,96
-58,635
-59,314
-59,996
-60,676
-61,353
-62,022
-62,681
-63,326
-63,953
-64,56
-65,142
-65,697
-66,22
-66,708
-67,159
-67,569
-67,938
-68,262
-68,542
-68,776
-68,966
-69,113
-69,218
-69,284
-69,313
-69,308
-69,272
-69,208
-69,121
-69,013
-68,888
-68,751
-68,605
-68,455
-68,305
-68,161
-68,026
-67,906
-67,805
-67,728
-67,68
-67,667
-67,693
-67,764
-67,884
-68,06
-68,296
-68,597
-68,967
-69,409
-69,927
-70,521
-71,193
-71,941
-72,764
-73,661
-74,628
-75,663
-76,763
-77,924
-79,143
-80,417
-81,741
-83,111
-84,522
-85,966
-87,437
-88,927
-90,428
-91,931
-93,427
-94,906
-96,359
-97,78
-99,16
-100,491
-101,763
-102,961
-104,075
-105,097
-106,023
-106,848
-107,57
-108,187
-108,706
-109,141
-109,504
-109,809
-110,064
-110,265
-110,415
-110,516
-110,571
-110,584
-110,549
-110,453
-110,288
-110,05
-109,734
-109,336
-108,836
-108,202
-107,408
-106,438
-105,29
-103,98
-102,525
-100,941
-99,259
-97,521
-95,787
-94,135
-92,621
-91,287
-90,175
-89,322
-88,78
-88,616
-88,869
-89,562
-90,699
-92,265
-94,246
-96,622
-99,344
-102,333
-105,492
-108,709
-111,906
-115,043
-118,077
-120,973
-123,687
-126,167
-128,415
-130,485
-132,44
-134,357
-136,322
-138,404
-140,724
-143,477
-146,779
-150,65
-155,038
-159,758
-164,603
-169,521
-174,463
-179,327
-184,225
-189,355
-194,933
-201,326
-208,858
-217,534
-226,892
-236,131
-244,155
-249,436
-251,705
-252,021
-249,382
-242,367
-227,524
-198,043
-155,027
-106,196
-62,4
-39,011
-39,035
-50,918
-58,48
-43,162
1,659
65,992
133,857
189,872
226,157
244,783
251,736
250,539
241,171
221,498
189,674
146,829
96,151
41,345
-14,028
-66,833
-113,809
-152,159
-180,476
-198,616
-207,475
-208,649
-203,714
-194,464
-183,368
-172,738
-164,052
-158,042
-154,68
-153,47
-153,946
-155,509
-157,174
-157,975
-157,357
-155,158
-151,591
-147,073
-141,971
-136,613
-131,406
-126,744
-122,839
-119,753
-117,417
-115,673
-114,388
-113,46
-112,767
-112,185
-111,619
-110,978
-110,185
-109,183
-107,899
-106,271
-104,265
-101,855
-99,029
-95,795
-92,158
-88,128
-83,732
-78,99
-73,92
-68,549
-62,903
-57,011
-50,911
-44,639
-38,234
-31,735
-25,172
-18,565
-11,944
-5,328
1,253
7,753
14,146
20,402
26,487
32,39
38,083
43,541
48,764
53,757
58,538
63,159
67,621
71,916
76,137
80,366
84,701
89,298
94,151
99,219
104,63
110,479
116,688
123,24
129,986
136,704
143,583
150,822
158,357
166,187
174,391
182,926
191,946
201,621
211,521
221,198
230,412
238,833
246,192
252,329
256,868
259,449
260,198
259,25
256,64
252,504
246,853
239,686
231,204
221,623
210,986
199,388
186,971
173,856
160,293
146,518
132,684
118,946
105,463
92,37
79,807
67,892
56,682
46,221
36,531
27,613
19,464
12,046
5,291
-0,88
-6,57
-11,874
-16,874
-21,662
-26,31
-30,878
-35,436
-40,03
-44,684
-49,419
-54,239
-59,137
-64,108
-69,13
-74,161
-79,151
-84,037
-88,756
-93,259
-97,492
-101,414
-104,993
-108,195
-110,988
-113,359
-115,302
-116,813
-117,892
-118,538
-118,746
-118,538
-117,953
-117,035
-115,828
-114,369
-112,685
-110,805
-108,753
-106,558
-104,256
-101,869
-99,41
-96,903
-94,369
-91,84
-89,367
-86,957
-84,578
-82,21
-79,828
-77,43
-75,055
-72,707
-70,356
-68,025
-65,776
-63,661
-61,747
-60,038
-58,448
-56,952
-55,613
-54,343
-52,876
-51,178
-49,347
-47,357
-45,541
-43,269
-38,751
-32,484
-26,088
-22,393
-26,55
-37,962
-51,519
-62,03
-62,153
-51,818
-37,883
-25,62
-20,889
-24,427
-31,083
-37,806
-42,35
-44,123
-45,272
-46,736
-48,329
-49,957
-51,381
-52,524
-53,637
-55,124
-56,042
-55,53
-54,835
-54,316
-56,235
-63,286
-72,402
-81,552
-87,759
-86,912
-82,64
-78,021
-75,161
-77,548
-82,687
-88,045
-93,051
-96,16
-98,263
-100,505
-102,667
-104,89
-107,096
-109,048
-110,897
-112,763
-114,603
-116,406
-118,185
-119,935
-121,645
-123,309
-124,903
-126,399
-127,806
-129,133
-130,374
-131,531
-132,601
-133,582
-134,477
-135,289
-136,017
-136,661
-137,221
-137,697
-138,092
-138,407
-138,643
-138,802
-138,885
-138,895
-138,834
-138,702
-138,504
-138,24
-137,915
-137,53
-137,089
-136,594
-136,05
-135,46
-134,828
-134,16
-133,459
-132,731
-131,982
-131,215
-130,438
-129,655
-128,872
-128,093
-127,322
-126,563
-125,82
-125,098
-124,402
-123,737
-123,106
-122,513
-121,961
-121,455
-120,997
-120,589
-120,229
-119,917
-119,65
-119,431
-119,261
-119,141
-119,067
-119,032
-119,026
-119,044
-119,08
-119,128
-119,18
-119,226
-119,255
-119,261
-119,25
-119,227
-119,194
-119,15
-119,082
-118,985
-118,866
-118,74
-118,638
-118,573
-118,532
-118,495
-118,435
-118,344
-118,248
-118,135
-117,939
-117,631
-117,197
-116,724
-116,442
-116,442
-116,66
-117,004
-117,31
-117,411
-117,229
-116,398
-114,247
-110,383
-104,649
-97,168
-88,56
-79,396
-70,079
-61,481
-54,732
-50,646
-49,941
-52,733
-58,196
-65,541
-74,007
-82,306
-89,205
-93,69
-94,609
-91,516
-84,93
-75,398
-63,73
-51,171
-38,63
-26,922
-17,082
-9,611
-4,483
-1,618
-0,563
-0,625
-1,456
-2,745
-4,089
-5,336
-6,416
-7,267
-8,035
-8,899
-9,866
-10,901
-11,932
-12,828
-13,521
-13,964
-14,084
-13,846
-13,242
-12,287
-11,039
-9,576
-7,963
-6,287
-4,638
-3,1
-1,804
-0,893
-0,433
-0,418
-0,739
-1,175
-1,553
-1,735
-1,491
-0,606
0,99
3,235
5,812
8,278
10,513
12,657
14,844
17,331
20,503
24,871
31,403
41,215
54,841
72,328
93,58
118,382
146,629
178,178
212,211
247,696
284,132
321,34
359,195
396,377
429,87
457,054
476,855
491,341
505,326
521,012
535,231
539,513
521,298
471,511
393,068
298,582
207,927
141,885
107,179
100,579
112,697
129,426
146,544
162,29
173,295
179,765
176,515
162,554
144,361
126,077
113,961
110,042
109,62
110,408
110,461
109,063
108,488
109,415
111,373
114,15
117,022
119,569
121,952
124,156
126,089
127,823
129,426
130,951
132,484
134,072
135,713
137,436
139,297
141,334
143,57
146,004
148,61
151,347
154,201
157,176
160,276
163,5
166,836
170,249
173,706
177,189
180,671
184,117
187,479
190,688
193,702
196,516
199,158
201,669
204,071
206,357
208,516
210,546
212,458
214,29
216,076
217,841
219,627
221,498
223,55
225,914
228,707
232,001
235,841
240,261
245,309
251,062
257,591
264,941
273,135
282,163
292,009
302,653
314,041
326,078
338,624
351,491
364,485
377,437
390,184
402,578
414,482
425,721
436,12
445,498
453,664
460,486
465,898
469,806
472,061
472,528
471,163
468,114
463,736
458,335
451,96
444,65
436,714
428,389
419,684
410,574
400,292
388,869
378,214
368,294
357,812
344,07
321,365
290,4
258,221
232,386
222,425
228,811
242,345
255,351
259,947
254,21
243,208
229,033
212,991
195,533
174,957
151,831
127,769
103,562
80,529
60,062
43,008
30,134
21,42
15,708
11,778
8,944
6,732
4,698
2,343
-1,021
-5,698
-11,283
-17,167
-22,952
-28,462
-33,709
-38,685
-43,185
-47,059
-50,393
-53,405
-56,287
-59,136
-61,927
-64,568
-67,022
-69,309
-71,432
-73,362
-75,069
-76,498
-77,599
-78,421
-79,044
-79,37
-79,27
-78,849
-78,114
-77,055
-76,016
-74,173
-70,724
-66,884
-63,033
-61,364
-64,499
-69,571
-74,668
-76,938
-72,452
-64,688
-56,597
-50,205
-48,858
-50,176
-51,746
-53,033
-52,566
-51,205
-50,054
-48,908
-47,912
-46,997
-45,944
-44,901
-43,991
-43,185
-42,483
-41,905
-41,453
-41,118
-40,9
-40,788
-40,761
-40,821
-40,958
-41,15
-41,394
-41,708
-42,108
-42,587
-43,154
-43,855
-44,766
-45,964
-47,477
-49,26
-51,259
-53,505
-55,954
-58,362
-60,517
-62,368
-63,963
-65,572
-66,695
-65,812
-62,272
-57,003
-53,764
-58,065
-72,28
-93,68
-114,282
-124,886
-121,451
-107,096
-90,76
-81,071
-81,608
-90,464
-101,865
-111,299
-117,328
-120,588
-123,024
-125,628
-128,289
-130,841
-133,086
-135,088
-137,082
-139,134
-141,224
-143,368
-145,583
-147,851
-150,118
-152,328
-154,461
-156,509
-158,475
-160,32
-161,925
-163,306
-164,612
-165,953
-167,43
-169,048
-170,63
-172,158
-173,833
-175,522
-176,826
-177,37
-176,696
-174,738
-171,895
-168,425
-164,423
-160,202
-156,504
-153,422
-150,077
-146,759
-144,222
-144,586
-152,983
-169,093
-187,059
-200,92
-201,882
-188,691
-169,704
-151,288
-139,871
-137,424
-138,529
-140,015
-140,477
-139,132
-137,628
-136,713
-135,935
-135,19
-134,285
-133,034
-131,441
-129,567
-127,523
-125,447
-123,512
-121,765
-120,094
-118,44
-116,789
-115,12
-113,452
-111,78
-110,064
-108,295
-106,492
-104,662
-102,815
-100,948
-99,045
-97,098
-95,106
-93,07
-90,999
-88,905
-86,806
-84,716
-82,646
-80,603
-78,592
-76,617
-74,687
-72,813
-71,005
-69,274
-67,62
-66,038
-64,521
-63,049
-61,596
-60,117
-58,554
-56,851
-54,966
-52,869
-50,546
-47,983
-45,164
-42,083
-38,739
-35,15
-31,35
-27,386
-23,309
-19,187
-15,108
-11,178
-7,528
-4,277
-1,513
0,702
2,32
3,298
3,585
3,141
1,969
0,114
-2,35
-5,339
-8,778
-12,593
-16,666
-20,827
-24,939
-28,952
-32,929
-36,964
-41,051
-45,043
-48,771
-52,201
-55,307
-57,952
-59,848
-60,681
-60,355
-59,153
-57,499
-55,533
-53,355
-51,242
-49,593
-48,9
-49,506
-51,27
-53,894
-57,521
-62,167
-67,468
-72,931
-77,716
-80,794
-81,482
-79,047
-72,277
-60,46
-43,441
-21,222
5,623
36,105
69,39
104,422
139,914
175,361
210,738
246,09
281,795
318,297
355,727
393,956
432,332
469,265
502,454
529,149
546,525
551,9
544,029
523,78
492,639
451,536
398,893
331,825
250,905
163,231
83,098
25,177
-3,213
-4,954
7,274
20,518
27,766
28,055
26,007
25,215
26,025
27,086
25,855
21,313
14,13
5,747
-2,148
-8,549
-13,078
-15,627
-16,349
-15,416
-13,007
-9,748
-6,282
-3,045
-0,363
1,72
3,277
4,278
4,694
4,663
4,333
3,829
3,279
2,684
2,028
1,363
0,75
0,243
-0,099
-0,248
-0,2
0,072
0,598
1,411
2,555
4,067
5,969
8,289
11,049
14,274
17,979
22,154
26,774
31,812
37,242
43,058
49,257
55,819
62,716
69,91
77,343
84,954
92,685
100,456
108,199
115,86
123,399
130,814
138,115
145,306
152,378
159,311
166,085
172,704
179,173
185,5
191,711
197,842
203,946
210,121
216,446
222,968
229,714
236,667
243,792
251,07
258,481
265,996
273,583
281,192
288,772
296,288
303,679
310,867
317,734
324,105
329,815
334,728
338,719
341,695
343,574
344,257
343,669
341,768
338,509
333,864
327,8
320,258
311,206
300,649
288,631
275,252
260,627
244,868
228,107
210,483
192,143
173,26
153,983
134,435
114,753
95,082
75,582
56,451
37,868
19,991
2,958
-13,12
-28,159
-42,09
-54,884
-66,542
-77,084
-86,55
-94,976
-102,387
-108,832
-114,379
-119,115
-123,158
-126,629
-129,641
-132,314
-134,77
-137,106
-139,405
-141,721
-144,079
-146,491
-148,966
-151,501
-154,101
-156,757
-159,451
-162,158
-164,838
-167,448
-169,944
-172,28
-174,42
-176,317
-177,917
-179,182
-180,085
-180,634
-180,889
-180,885
-180,623
-180,149
-179,527
-178,842
-178,24
-177,735
-177,192
-176,529
-175,719
-174,697
-173,382
-171,821
-170,079
-168,248
-166,834
-165,473
-162,786
-159,292
-156,264
-156,316
-164,548
-180,225
-197,991
-212,182
-214,469
-204,512
-189,947
-176,395
-170,233
-172,026
-174,862
-176,354
-176,619
-177,803
-186,857
-204,221
-224,083
-240,821
-246,205
-238,886
-225,862
-212,976
-206,694
-208,67
-214,052
-219,869
-224,233
-227,145
-231,345
-237,833
-246,275
-256,245
-266,61
-276,78
-286,667
-295,619
-303,051
-308,789
-312,727
-315,218
-317,025
-318,551
-320,022
-321,861
-324,344
-327,685
-332,185
-337,711
-343,771
-350,099
-356,526
-362,897
-369,213
-375,38
-381,174
-386,589
-391,779
-396,834
-401,834
-406,792
-411,623
-416,308
-420,887
-425,359
-429,702
-433,892
-437,888
-441,677
-445,278
-448,699
-451,945
-455,013
-457,888
-460,562
-463,034
-465,299
-467,355
-469,197
-470,815
-472,201
-473,351
-474,26
-474,927
-475,349
-475,523
-475,444
-475,106
-474,508
-473,649
-472,529
-471,146
-469,5
-467,592
-465,43
-463,018
-460,358
-457,452
-454,296
-450,887
-447,218
-443,281
-439,067
-434,573
-429,798
-424,748
-419,436
-413,876
-408,082
-402,064
-395,821
-389,352
-382,665
-375,768
-368,678
-361,427
-354,051
-346,592
-339,113
-331,68
-324,338
-317,123
-310,041
-303,061
-296,156
-289,326
-282,536
-275,723
-268,855
-261,892
-254,804
-247,639
-240,429
-233,107
-225,738
-218,58
-211,592
-204,587
-197,638
-190,401
-183,232
-177,811
-173,738
-169,368
-162,223
-146,505
-120,914
-90,146
-60,552
-43,792
-46,439
-64,126
-88,686
-105,775
-104,584
-86,061
-56,66
-28,184
-10,544
-5,472
-10,103
-18,317
-25,193
-29,479
-31,817
-33,932
-36,71
-39,967
-43,421
-46,75
-49,944
-53,225
-56,65
-60,21
-63,922
-67,759
-71,681
-75,656
-79,648
-83,574
-87,332
-90,761
-93,604
-95,64
-96,738
-96,737
-95,412
-92,666
-88,57
-83,46
-77,974
-72,609
-67,564
-62,939
-58,843
-55,286
-51,981
-48,123
-42,385
-33,57
-20,951
-4,124
17,234
43,526
74,843
110,632
149,684
190,585
232,152
273,413
313,184
349,677
380,904
405,096
420,835
426,885
421,901
404,454
373,416
329,651
276,224
216,483
154,087
90,322
22,053
-52,052
-130,762
-208,795
-270,695
-301,418
-291,391
-236,727
-151,24
-56,877
25,714
76,869
92,864
81,413
51,753
16,885
-16,284
-45,39
-65,456
-74,153
-70,652
-56,633
-39,586
-26,277
-19,833
-19,825
-21,825
-22,328
-20,599
-17,369
-14,513
-12,918
-12,17
-11,749
-11,098
-9,927
-8,27
-6,109
-3,401
-0,193
3,478
7,605
12,191
17,248
22,778
28,757
35,161
41,991
49,244
56,902
64,929
73,278
81,91
90,809
99,963
109,369
119,008
128,852
138,872
149,042
159,344
169,753
180,233
190,726
201,176
211,532
221,755
231,823
241,715
251,41
260,89
270,143
279,168
287,98
296,605
305,059
313,365
321,549
329,661
337,783
346,003
354,41
363,083
372,08
381,451
391,237
401,462
412,127
423,212
434,674
446,451
458,483
470,701
483,019
495,315
507,424
519,163
530,338
540,751
550,211
558,522
565,488
570,935
574,727
576,744
576,894
575,103
571,302
565,455
557,563
547,674
535,888
522,336
507,169
490,565
472,729
453,901
434,351
414,34
394,112
373,914
353,994
334,599
315,982
298,35
281,86
266,626
252,722
240,203
229,105
219,441
211,178
204,233
198,482
193,792
190,03
187,033
184,615
182,564
180,656
178,708
176,593
174,213
171,492
168,359
164,743
160,589
155,877
150,624
144,873
138,68
132,103
125,236
118,2
111,146
104,243
97,617
91,355
85,518
80,156
75,317
71,055
67,415
64,413
62,057
60,342
59,257
58,792
58,91
59,549
60,63
62,059
63,765
65,703
67,834
70,131
72,564
75,1
77,713
80,392
83,12
85,882
88,66
91,435
94,198
96,954
99,713
102,491
105,295
108,125
110,978
113,849
116,733
119,623
122,508
125,374
128,211
131,011
133,769
136,481
139,142
141,744
144,28
146,742
149,123
151,419
153,626
155,741
157,761
159,686
161,517
163,257
164,907
166,47
167,945
169,334
170,638
171,859
172,997
174,055
175,032
175,931
176,753
177,5
178,173
178,774
179,303
179,762
180,152
180,474
180,73
180,92
181,044
181,104
181,1
181,033
180,903
180,709
180,453
180,133
179,75
179,305
178,797
178,226
177,594
176,9
176,148
175,339
174,474
173,555
172,586
171,568
170,504
169,397
168,25
167,065
165,847
164,599
163,327
162,036
160,732
159,422
158,113
156,813
155,53
154,272
153,046
151,861
150,724
149,648
148,643
147,721
146,888
146,148
145,506
144,96
144,511
144,15
143,864
143,644
143,477
143,36
143,291
143,263
143,272
143,315
143,383
143,477
143,607
143,773
143,982
144,263
144,642
145,153
145,847
146,743
147,851
149,198
150,796
152,609
154,598
156,718
158,914
161,174
163,499
165,811
168,003
170,124
172,254
174,219
175,926
177,318
177,995
178,763
180,433
181,774
182,424
180,182
172,423
162,123
151,282
142,878
141,008
142,235
143,665
143,36
138,024
130,214
122,557
115,686
111,107
107,845
104,543
101,251
97,835
94,426
91,288
88,367
85,664
83,522
82,504
82,941
84,732
87,304
89,998
92,47
94,221
95,371
95,91
94,508
91,011
84,128
71,676
55,176
36,705
20,861
14,635
19,851
33,38
47,849
54,363
48,496
33,479
18,033
10,254
16,002
35,775
65,397
102,233
143,874
188,714
237,094
287,706
338,63
388,365
434,477
474,568
507,028
530,369
543,425
545,902
537,414
517,378
486,108
444,75
394,922
338,92
279,218
217,766
156,975
99,933
49,235
6,797
-26,321
-50,258
-65,522
-72,379
-71,979
-66,511
-58,403
-50,156
-43,493
-39,014
-37,214
-38,776
-43,67
-51,168
-60,014
-68,471
-75,47
-80,75
-84,038
-85,045
-83,806
-80,588
-76,103
-71,48
-67,423
-64,231
-62,168
-61,384
-61,962
-63,939
-67,1
-71,034
-75,464
-80,218
-85,152
-90,17
-95,133
-99,899
-104,39
-108,565
-112,37
-115,717
-118,505
-120,65
-122,111
-122,882
-122,97
-122,386
-121,154
-119,322
-116,966
-114,179
-111,042
-107,614
-103,942
-100,074
-96,058
-91,953
-87,805
-83,632
-79,446
-75,251
-71,05
-66,854
-62,654
-58,425
-54,13
-49,72
-45,161
-40,442
-35,551
-30,489
-25,256
-19,848
-14,274
-8,553
-2,703
3,261
9,324
15,476
21,692
27,933
34,152
40,291
46,295
52,119
57,719
63,059
68,106
72,818
77,143
81,028
84,406
87,204
89,35
90,769
91,391
91,162
90,041
88
85,025
81,096
76,195
70,297
63,375
55,422
46,459
36,529
25,699
14,058
1,705
-11,244
-24,661
-38,427
-52,434
-66,579
-80,77
-94,904
-108,869
-122,538
-135,772
-148,445
-160,448
-171,699
-182,146
-191,757
-200,531
-208,485
-215,665
-222,113
-227,862
-232,941
-237,37
-241,184
-244,427
-247,162
-249,465
-251,415
-253,088
-254,549
-255,844
-257,003
-258,031
-258,908
-259,588
-260,033
-260,215
-260,126
-259,77
-259,149
-258,27
-257,137
-255,756
-254,14
-252,291
-250,213
-247,911
-245,402
-242,722
-239,932
-237,112
-234,333
-231,653
-229,109
-226,725
-224,522
-222,507
-220,671
-218,992
-217,429
-215,959
-214,568
-213,248
-211,989
-210,768
-209,548
-208,281
-206,931
-205,47
-203,88
-202,151
-200,271
-198,245
-196,091
-193,845
-191,553
-189,249
-186,955
-184,684
-182,447
-180,259
-178,141
-176,11
-174,176
-172,347
-170,629
-169,027
-167,548
-166,193
-164,951
-163,805
-162,736
-161,728
-160,774
-159,87
-159,014
-158,204
-157,437
-156,714
-156,042
-155,425
-154,865
-154,362
-153,917
-153,531
-153,209
-152,955
-152,776
-152,675
-152,65
-152,699
-152,822
-153,016
-153,286
-153,63
-154,04
-154,521
-155,093
-155,764
-156,552
-157,463
-158,468
-159,55
-160,715
-161,915
-163,075
-164,158
-165,124
-165,951
-166,72
-167,496
-168,272
-169,216
-170,672
-172,654
-175,005
-177,789
-180,622
-183,891
-189,307
-196,346
-203,283
-207,397
-202,616
-187,791
-167,66
-148,753
-143,012
-156,658
-185,105
-219,882
-246,066
-252,806
-240,925
-216,824
-192,666
-178,473
-176,14
-182,942
-192,597
-200,103
-204,174
-205,445
-205,795
-206,277
-206,83
-207,294
-207,434
-207,31
-207,207
-207,211
-207,314
-207,5
-207,697
-207,839
-207,862
-207,688
-207,27
-206,594
-205,661
-204,468
-203
-201,259
-199,272
-197,068
-194,69
-192,191
-189,631
-187,093
-184,686
-182,497
-180,597
-179,041
-177,858
-177,083
-176,755
-176,912
-177,596
-178,841
-180,65
-183,027
-185,968
-189,443
-193,413
-197,815
-202,549
-207,539
-212,727
-218,06
-223,508
-229,03
-234,561
-240,03
-245,341
-250,385
-255,059
-259,245
-262,81
-265,636
-267,611
-268,64
-268,653
-267,556
-265,225
-261,531
-256,334
-249,52
-240,982
-230,602
-218,358
-204,32
-188,651
-171,652
-153,645
-134,884
-115,697
-96,473
-77,403
-58,541
-39,779
-20,698
-0,96
19,52
40,868
63,193
86,176
109,198
131,337
150,89
166,019
175,449
177,71
172,184
159,9
140,636
113,885
79,007
33,414
-20,412
-75,246
-123,463
-155,47
-169,145
-170,54
-165,121
-159,352
-155,067
-148,305
-137,863
-123,943
-107,816
-92,696
-80,009
-69,789
-62,344
-57,613
-55,059
-53,871
-53,016
-51,765
-49,922
-47,523
-44,43
-40,306
-35,104
-29,227
-23,299
-17,783
-12,817
-8,337
-4,296
-0,802
2,076
4,483
6,715
9,046
11,634
14,515
17,661
21,103
24,899
29,061
33,558
38,33
43,317
48,491
53,85
59,383
65,069
70,872
76,741
82,634
88,523
94,379
100,179
105,888
111,457
116,851
122,058
127,074
131,912
136,578
141,071
145,401
149,592
153,671
157,67
161,61
165,493
169,334
173,151
176,979
180,875
184,874
188,99
193,237
197,625
202,166
206,886
211,782
216,823
221,985
227,24
232,567
237,966
243,412
248,866
254,283
259,597
264,758
269,738
274,484
278,931
283,002
286,595
289,631
292,061
293,822
294,852
295,088
294,456
292,906
290,414
286,949
282,485
276,99
270,414
262,746
254,012
244,266
233,595
222,09
209,833
196,929
183,498
169,664
155,559
141,303
126,996
112,759
98,726
85,046
71,891
59,396
47,653
36,733
26,668
17,479
9,18
1,756
-4,834
-10,634
-15,698
-20,076
-23,806
-26,954
-29,606
-31,865
-33,864
-35,706
-37,466
-39,205
-40,964
-42,774
-44,658
-46,618
-48,634
-50,685
-52,751
-54,811
-56,856
-58,858
-60,777
-62,56
-64,145
-65,482
-66,541
-67,297
-67,738
-67,854
-67,642
-67,113
-66,289
-65,193
-63,842
-62,256
-60,448
-58,437
-56,25
-53,916
-51,467
-48,927
-46,317
-43,653
-40,95
-38,22
-35,474
-32,717
-29,951
-27,177
-24,401
-21,63
-18,87
-16,129
-13,41
-10,719
-8,062
-5,446
-2,876
-0,361
2,094
4,481
6,793
9,022
11,16
13,201
15,139
16,968
18,682
20,278
21,749
23,093
24,304
25,38
26,316
27,111
27,762
28,265
28,62
28,826
28,881
28,784
28,536
28,138
27,592
26,9
26,067
25,097
23,997
22,772
21,431
19,98
18,426
16,776
15,039
13,219
11,326
9,366
7,348
5,281
3,178
1,046
-1,101
-3,252
-5,397
-7,523
-9,618
-11,675
-13,681
-15,628
-17,504
-19,295
-20,988
-22,576
-24,055
-25,419
-26,67
-27,807
-28,835
-29,769
-30,62
-31,4
-32,12
-32,781
-33,383
-33,93
-34,425
-34,874
-35,278
-35,623
-35,895
-36,082
-36,17
-36,147
-35,994
-35,677
-35,168
-34,448
-33,51
-32,363
-31,025
-29,51
-27,836
-26,03
-24,132
-22,203
-20,318
-18,534
-16,908
-15,493
-14,348
-13,546
-13,149
-13,186
-13,667
-14,584
-15,914
-17,644
-19,754
-22,202
-24,928
-27,85
-30,862
-33,882
-36,837
-39,653
-42,26
-44,585
-46,579
-48,24
-49,601
-50,705
-51,589
-52,27
-52,768
-53,132
-53,436
-53,778
-54,277
-55,014
-56,069
-57,542
-59,452
-61,738
-64,241
-66,661
-68,695
-70,128
-70,789
-70,536
-69,435
-67,718
-65,731
-63,952
-62,656
-61,86
-61,387
-60,931
-59,914
-57,45
-52,549
-44,173
-31,627
-14,64
6,711
32,208
61,413
93,436
127,242
161,612
195,342
227,527
257,437
284,184
306,825
324,638
336,864
343,064
343,169
336,973
324,327
305,534
281,184
252,183
219,908
185,598
150,244
115,144
81,671
50,93
23,894
1,042
-17,757
-32,672
-43,888
-51,982
-57,752
-61,951
-65,38
-68,509
-71,402
-74,084
-76,514
-78,445
-79,517
-79,462
-78,058
-75,276
-71,308
-66,374
-60,738
-54,749
-48,793
-43,159
-38,054
-33,611
-29,859
-26,834
-24,557
-22,983
-22,041
-21,667
-21,799
-22,383
-23,354
-24,6
-26,002
-27,456
-28,864
-30,171
-31,296
-32,076
-32,454
-32,467
-32,174
-31,722
-31,145
-30,244
-28,965
-27,458
-25,653
-23,375
-20,37
-16,061
-10,26
-3,452
4,059
12,099
20,097
27,549
33,817
37,635
38,392
36,474
32,206
26,247
19,897
14,16
10,107
9,477
13,322
21,856
35,24
52,765
72,832
94,125
115,417
135,154
152,282
166,059
175,716
181,399
184,142
184,955
184,646
183,936
183,232
182,969
183,767
185,737
188,397
191,09
193,301
194,758
195,41
195,183
193,826
191,203
187,412
182,708
177,328
171,36
164,768
157,479
149,493
140,859
131,611
121,751
111,274
100,209
88,628
76,63
64,32
51,783
39,101
26,352
13,628
1,043
-11,287
-23,245
-34,733
-45,675
-56,017
-65,719
-74,759
-83,131
-90,843
-97,915
-104,377
-110,255
-115,587
-120,414
-124,792
-128,798
-132,504
-135,99
-139,322
-142,546
-145,695
-148,795
-151,854
-154,87
-157,839
-160,745
-163,566
-166,295
-168,928
-171,45
-173,841
-176,067
-178,067
-179,796
-181,23
-182,315
-182,978
-183,191
-182,93
-182,195
-181,074
-179,658
-177,98
-176,214
-174,689
-173,447
-172,372
-171,555
-170,704
-170,127
-171,279
-173,752
-176,078
-176,003
-168,269
-151,611
-129,94
-108,933
-99,45
-107,784
-130,6
-160,439
-183,157
-187,895
-174,434
-148,411
-121,823
-104,754
-99,591
-103,987
-111,502
-117,006
-119,107
-118,306
-116,576
-115,033
-113,581
-112,07
-110,259
-108,198
-106,187
-104,337
-102,652
-101,153
-99,826
-98,647
-97,584
-96,581
-95,593
-94,614
-93,66
-92,739
-91,85
-90,995
-90,175
-89,395
-88,662
-87,977
-87,338
-86,746
-86,201
-85,706
-85,264
-84,879
-84,553
-84,287
-84,084
-83,946
-83,873
-83,865
-83,925
-84,052
-84,246
-84,508
-84,841
-85,247
-85,728
-86,287
-86,924
-87,642
-88,441
-89,319
-90,276
-91,308
-92,41
-93,582
-94,822
-96,132
-97,512
-98,956
-100,461
-102,018
-103,615
-105,238
-106,869
-108,489
-110,083
-111,641
-113,158
-114,634
-116,072
-117,474
-118,838
-120,157
-121,423
-122,629
-123,771
-124,843
-125,853
-126,815
-127,751
-128,689
-129,65
-130,644
-131,671
-132,726
-133,788
-134,829
-135,825
-136,754
-137,606
-138,375
-139,052
-139,629
-140,084
-140,379
-140,471
-140,303
-139,826
-138,992
-137,769
-136,131
-134,081
-131,651
-128,873
-125,785
-122,409
-118,758
-114,854
-110,727
-106,42
-101,992
-97,511
-93,055
-88,715
-84,589
-80,769
-77,337
-74,333
-71,763
-69,619
-67,881
-66,544
-65,611
-65,081
-64,952
-65,196
-65,762
-66,581
-67,566
-68,629
-69,7
-70,686
-71,46
-71,986
-72,297
-72,546
-73,026
-73,872
-75,035
-76,432
-77,986
-79,622
-81,228
-82,378
-82,288
-80,459
-76,848
-71,754
-65,702
-59,049
-52,147
-45,802
-41,379
-40,094
-42,464
-48,189
-56,407
-66,341
-77,128
-87,426
-95,209
-98,188
-94,823
-84,605
-67,709
-44,546
-15,751
17,625
53,72
90,063
124,718
156,51
184,806
209,377
230,006
246,792
260,749
273,397
285,995
298,452
309,244
316,905
321,181
324,926
332,069
343,779
357,431
363,295
349,997
311,796
248,526
172,063
99,575
42,854
10,394
-0,866
-1,771
0,968
1,573
-0,365
0,104
4,233
11,604
21,054
29,5
35,636
39,764
42,089
43,259
44,116
45,336
47,385
50,523
54,696
59,551
64,822
70,329
75,764
80,818
85,289
89,039
92,083
94,561
96,573
98,196
99,497
100,543
101,416
102,201
102,969
103,779
104,668
105,659
106,792
108,1
109,617
111,388
113,426
115,728
118,304
121,159
124,303
127,746
131,453
135,378
139,484
143,739
148,142
152,692
157,351
162,076
166,831
171,595
176,402
181,27
186,179
191,139
196,183
201,417
207,009
212,979
219,197
225,543
231,893
238,124
244,122
249,677
254,608
259,095
263,602
267,769
270,579
271,67
271,52
273,64
283,529
303,113
330,208
357,91
375,687
377,79
364,993
341,754
317,803
301,302
294,875
301,303
317,296
336,875
357,566
372,347
378,948
379,157
371,88
362,534
354,62
348,326
346,324
346,224
345,498
343,885
339,814
333,825
326,969
319,072
310,312
300,688
290,079
278,769
267,052
255,07
242,946
230,789
218,705
206,814
195,258
184,161
173,617
163,733
154,6
146,272
138,783
132,14
126,307
121,24
116,893
113,21
110,144
107,639
105,625
104,02
102,724
101,641
100,687
99,792
98,898
97,959
96,941
95,825
94,615
93,327
91,977
90,581
89,152
87,71
86,283
84,911
83,638
82,507
81,544
80,77
80,198
79,838
79,691
79,754
80,008
80,435
81,013
81,726
82,558
83,491
84,503
85,567
86,658
87,751
88,833
89,889
90,911
91,892
92,825
93,71
94,552
95,354
96,119
96,847
97,54
98,2
98,83
99,434
100,016
100,579
101,125
101,656
102,174
102,68
103,176
103,662
104,136
104,598
105,048
105,486
105,913
106,33
106,734
107,127
107,507
107,874
108,225
108,558
108,869
109,155
109,412
109,636
109,821
109,964
110,06
110,104
110,091
110,016
109,875
109,662
109,374
109,005
108,55
108,006
107,367
106,63
105,792
104,849
103,798
102,637
101,363
99,977
98,475
96,858
95,125
93,276
91,313
89,237
87,051
84,76
82,367
79,879
77,303
74,646
71,917
69,122
66,271
63,372
60,434
57,466
54,476
51,472
48,464
45,463
42,481
39,528
36,618
33,762
30,971
28,26
25,64
23,122
20,714
18,425
16,266
14,247
12,38
10,677
9,141
7,777
6,587
5,573
4,731
4,053
3,524
3,127
2,85
2,69
2,646
2,716
2,896
3,181
3,567
4,059
4,665
5,386
6,222
7,171
8,238
9,443
10,813
12,363
14,094
15,995
18,049
20,24
22,545
24,938
27,393
29,882
32,37
34,829
37,218
39,482
41,57
43,411
44,863
45,782
46,081
45,721
44,738
43,232
41,263
38,978
36,789
35,103
34,026
33,485
33,272
33,758
36,324
42,041
49,926
55,572
52,792
36,692
8,219
-22,925
-44,36
-45,236
-22,445
14,344
52,072
78,013
84,451
74,011
51,19
21,648
-8,319
-34,595
-50,762
-52,078
-38,387
-13,967
11,339
29,107
35,38
30,897
21,275
10,904
1,594
-6,371
-14,279
-22,096
-28,04
-30,127
-26,6
-16,354
0,862
24,721
54,46
88,755
125,618
162,741
198,086
229,83
256,326
276,573
290,023
296,416
296,152
290,047
278,856
263,301
244,231
222,07
196,968
169,44
139,872
108,396
75,329
41,124
6,212
-28,265
-60,611
-89,769
-114,923
-135,232
-150,291
-159,802
-163,489
-162,203
-157,731
-151,53
-144,964
-139,215
-134,908
-132,825
-133,913
-138,136
-144,651
-152,545
-160,716
-168,412
-175,43
-181,351
-185,534
-187,812
-188,392
-187,705
-186,487
-185,171
-183,757
-182,338
-181,156
-180,338
-179,984
-180,058
-180,177
-180,081
-179,829
-179,464
-178,919
-178,175
-177,07
-175,459
-173,686
-172,087
-170,716
-169,662
-169,052
-168,905
-169,459
-170,961
-173,059
-175,377
-177,747
-179,914
-181,697
-183,003
-183,503
-182,85
-181,153
-178,52
-174,967
-170,604
-165,423
-159,394
-152,679
-145,46
-137,747
-129,588
-121,064
-112,217
-103,189
-94,13
-85,111
-76,214
-67,553
-59,21
-51,248
-43,742
-36,716
-30,14
-23,979
-18,183
-12,668
-7,371
-2,252
2,795
7,895
12,969
17,917
22,878
27,879
32,923
38,331
43,216
46,71
49,956
53,246
58,68
68,751
80,404
91,565
99,237
99,356
95,309
89,95
85,177
84,232
84,66
84,006
81,753
76,474
69,072
60,713
51,318
41,258
30,715
19,679
8,474
-2,65
-13,612
-24,208
-34,321
-44,131
-53,601
-62,458
-70,68
-78,023
-84,837
-92,64
-101,145
-108,749
-112,851
-108,672
-95,576
-77,102
-59,072
-50,711
-56,123
-73,776
-97,62
-116,561
-123,786
-116,883
-99,178
-80,066
-65,922
-60,72
-64,11
-70,729
-77,233
-81,57
-83,225
-84,065
-84,844
-85,501
-86,065
-86,152
-85,692
-84,984
-84,121
-83,106
-81,987
-80,769
-79,452
-78,04
-76,516
-74,85
-73,056
-71,179
-69,257
-67,313
-65,363
-63,419
-61,492
-59,595
-57,736
-55,911
-54,115
-52,346
-50,604
-48,892
-47,214
-45,57
-43,961
-42,385
-40,843
-39,336
-37,866
-36,434
-35,042
-33,694
-32,392
-31,14
-29,943
-28,806
-27,731
-26,72
-25,775
-24,9
-24,096
-23,364
-22,707
-22,125
-21,621
-21,197
-20,855
-20,595
-20,421
-20,332
-20,331
-20,418
-20,594
-20,858
-21,211
-21,653
-22,184
-22,803
-23,509
-24,302
-25,181
-26,143
-27,19
-28,318
-29,527
-30,814
-32,178
-33,617
-35,129
-36,712
-38,365
-40,084
-41,868
-43,714
-45,62
-47,583
-49,6
-51,668
-53,783
-55,941
-58,139
-60,373
-62,639
-64,935
-67,255
-69,596
-71,956
-74,329
-76,712
-79,1
-81,49
-83,878
-86,26
-88,632
-90,991
-93,334
-95,659
-97,962
-100,242
-102,495
-104,718
-106,909
-109,063
-111,178
-113,249
-115,272
-117,243
-119,16
-121,021
-122,825
-124,572
-126,262
-127,893
-129,466
-130,982
-132,441
-133,839
-135,174
-136,442
-137,645
-138,781
-139,855
-140,869
-141,817
-142,7
-143,514
-144,255
-144,914
-145,478
-145,926
-146,245
-146,427
-146,469
-146,376
-146,149
-145,79
-145,304
-144,695
-143,968
-143,134
-142,195
-141,147
-139,998
-138,763
-137,469
-136,164
-134,879
-133,634
-132,445
-131,321
-130,264
-129,277
-128,348
-127,447
-126,552
-125,639
-124,696
-123,725
-122,713
-121,639
-120,461
-119,12
-117,562
-115,751
-113,644
-111,198
-108,382
-105,168
-101,561
-97,6
-93,325
-88,777
-83,998
-79,018
-73,873
-68,609
-63,284
-57,968
-52,747
-47,724
-43,004
-38,706
-34,939
-31,785
-29,33
-27,667
-26,786
-26,589
-26,982
-27,834
-29,137
-31,064
-33,645
-36,763
-40,47
-44,918
-50,277
-56,838
-64,497
-72,667
-81,001
-89,383
-97,556
-105,28
-112,211
-117,744
-121,831
-125,05
-127,764
-130,182
-132,546
-134,938
-137,59
-141,031
-145,332
-150,095
-155,051
-159,94
-164,528
-168,767
-172,46
-175,227
-176,929
-177,593
-177,177
-175,673
-172,996
-168,952
-163,463
-156,49
-147,921
-137,725
-125,949
-112,724
-98,384
-83,298
-67,74
-52,065
-36,642
-21,599
-6,926
7,609
22,538
38,226
54,777
72,341
90,978
110,219
129,135
146,32
159,939
168,446
170,77
165,84
152,667
131,12
101,982
66,856
28,053
-12,179
-51,987
-89,346
-121,883
-147,935
-166,736
-178,24
-183,204
-182,597
-177,103
-167,661
-155,993
-143,603
-131,618
-121,032
-112,224
-105,289
-100,646
-98,651
-98,959
-101,149
-104,709
-108,773
-112,865
-116,81
-120,23
-122,615
-123,64
-123,268
-121,824
-119,893
-118,101
-115,986
-112,034
-106,739
-101,61
-99,24
-104,425
-116,395
-129,772
-139,53
-138,785
-127,162
-111,544
-96,397
-85,287
-79,523
-76,081
-74,869
-79,374
-88,872
-99,736
-107,364
-103,877
-88,54
-68,56
-49,733
-38,561
-36,504
-37,983
-39,491
-38,714
-34,882
-30,341
-26,074
-21,833
-17,809
-13,699
-9,393
-5,522
-1,355
3,974
9,286
14,221
16,668
14,106
9,451
4,692
2,712
7,425
15,436
23,883
30,805
32,936
32,669
32,425
32,786
35,257
39,014
42,964
47,287
51,798
56,534
61,686
67,063
72,482
77,901
83,243
88,421
93,369
97,993
102,16
105,726
108,549
110,494
111,472
111,4
110,152
107,674
103,984
99,116
93,177
86,181
77,983
68,562
58,053
46,451
33,694
19,736
4,412
-12,091
-29,137
-46,309
-63,381
-79,942
-95,561
-109,742
-121,767
-131,495
-139,435
-145,875
-150,981
-154,999
-158,063
-160,508
-162,967
-165,604
-168,118
-170,351
-172,182
-173,59
-174,776
-175,779
-176,463
-176,868
-177,159
-177,507
-178,135
-179,144
-180,496
-182,15
-184,027
-186,077
-188,348
-190,695
-192,738
-194,356
-195,579
-196,33
-196,92
-196,701
-193,83
-188,76
-183,127
-179,762
-183,895
-195,035
-208,028
-217,668
-216,56
-204,522
-188,532
-173,971
-166,732
-167,648
-171,517
-175,222
-176,56
-174,962
-172,571
-170,304
-168,098
-166,017
-163,738
-161,198
-158,686
-156,287
-153,951
-151,689
-149,516
-147,422
-145,398
-143,421
-141,443
-139,453
-137,478
-135,529
-133,609
-131,722
-129,869
-128,055
-126,289
-124,575
-122,912
-121,302
-119,746
-118,244
-116,801
-115,417
-114,096
-112,838
-111,646
-110,521
-109,464
-108,476
-107,558
-106,71
-105,932
-105,223
-104,582
-104,009
-103,501
-103,056
-102,674
-102,352
-102,087
-101,878
-101,723
-101,618
-101,561
-101,55
-101,582
-101,654
-101,763
-101,908
-102,084
-102,29
-102,524
-102,782
-103,062
-103,36
-103,675
-104,003
-104,34
-104,683
-105,028
-105,371
-105,71
-106,039
-106,357
-106,661
-106,947
-107,213
-107,457
-107,676
-107,868
-108,032
-108,164
-108,262
-108,325
-108,349
-108,333
-108,273
-108,169
-108,017
-107,814
-107,559
-107,248
-106,878
-106,446
-105,948
-105,381
-104,741
-104,026
-103,233
-102,36
-101,406
-100,369
-99,249
-98,046
-96,76
-95,391
-93,939
-92,405
-90,789
-89,089
-87,305
-85,437
-83,484
-81,447
-79,326
-77,124
-74,843
-72,486
-70,057
-67,559
-64,996
-62,372
-59,691
-56,956
-54,17
-51,337
-48,465
-45,559
-42,631
-39,688
-36,736
-33,778
-30,814
-27,841
-24,851
-21,837
-18,788
-15,699
-12,568
-9,4
-6,204
-2,994
0,219
3,425
6,627
9,822
13,008
16,179
19,326
22,434
25,484
28,45
31,304
34,023
36,602
39,048
41,386
43,652
45,886
48,118
50,367
52,649
54,978
57,365
59,816
62,343
64,962
67,701
70,6
73,687
76,975
80,452
84,088
87,844
91,671
95,537
99,417
103,295
107,169
111,05
114,954
118,906
122,912
126,959
131,018
135,063
139,079
143,069
147,037
150,981
154,902
158,782
162,597
166,314
169,871
173,188
176,179
178,758
180,864
182,474
183,583
184,181
184,249
183,769
182,733
181,175
179,16
176,752
174,024
171,044
167,876
164,647
161,528
158,589
155,803
153,102
150,358
147,575
144,944
142,512
140,182
137,977
135,959
134,289
133,33
133,12
133,319
133,745
134,322
134,895
135,392
135,469
134,399
131,805
127,648
121,938
114,935
106,976
98,357
89,925
83,023
78,927
78,901
83,788
93,744
108,842
129,076
153,848
182,163
212,759
244,032
275,051
305,719
335,918
365,514
394,477
422,696
450,301
477,724
504,558
529,474
551,031
567,791
578,65
582,938
579,852
568,398
548,389
520,73
486,929
448,827
408,116
366,286
325,195
287,281
254,697
228,576
209,22
196,456
189,911
189,171
193,382
200,655
208,882
216,749
223,541
228,903
232,779
235,01
235,562
235,364
235,563
236,715
239,102
242,712
247,253
252,701
259,083
265,843
272,38
278,387
283,595
287,974
291,646
294,52
296,506
297,769
298,458
298,695
298,641
298,328
297,776
297,101
296,391
295,691
295,064
294,537
294,144
293,972
294,082
294,518
295,32
296,492
298,04
299,973
302,276
304,932
307,916
311,193
314,745
318,56
322,618
326,899
331,366
335,968
340,682
345,498
350,41
355,41
360,461
365,515
370,541
375,53
380,492
385,413
390,223
394,892
399,479
404,126
409,005
414,168
419,482
424,778
430,025
435,169
440,043
444,295
447,468
449,399
450,392
450,954
451,407
451,997
453,027
455,015
458,664
464,283
471,536
479,705
488,194
496,585
504,512
511,461
516,723
519,841
520,862
520,195
518,201
515,037
510,734
505,32
498,961
491,801
483,805
474,792
464,625
453,301
440,937
427,741
413,88
399,471
384,662
369,62
354,503
339,466
324,639
310,126
296,058
282,569
269,765
257,741
246,551
236,208
226,708
218,015
210,066
202,811
196,196
190,167
184,681
179,683
175,106
170,874
166,892
163,054
159,278
155,497
151,66
147,742
143,723
139,604
135,408
131,157
126,876
122,587
118,298
114,018
109,774
105,595
101,521
97,599
93,853
90,305
86,979
83,882
81,024
78,402
75,99
73,762
71,69
69,755
67,948
66,256
64,658
63,136
61,679
60,275
58,934
57,648
56,395
55,154
53,904
52,627
51,32
49,974
48,575
47,109
45,562
43,925
42,201
40,375
38,424
36,315
34
31,453
28,673
25,663
22,43
18,994
15,372
11,599
7,728
3,798
-0,164
-4,134
-8,101
-12,038
-15,903
-19,652
-23,227
-26,582
-29,689
-32,522
-35,064
-37,317
-39,295
-41,035
-42,593
-44,01
-45,314
-46,524
-47,652
-48,717
-49,745
-50,761
-51,796
-52,882
-54,048
-55,326
-56,737
-58,291
-59,978
-61,779
-63,654
-65,577
-67,529
-69,497
-71,474
-73,455
-75,434
-77,409
-79,379
-81,339
-83,276
-85,179
-87,037
-88,846
-90,61
-92,339
-94,05
-95,755
-97,465
-99,188
-100,929
-102,69
-104,47
-106,265
-108,068
-109,876
-111,688
-113,503
-115,322
-117,145
-118,969
-120,791
-122,608
-124,417
-126,213
-127,992
-129,752
-131,491
-133,207
-134,902
-136,575
-138,229
-139,864
-141,482
-143,083
-144,668
-146,237
-147,791
-149,33
-150,855
-152,367
-153,866
-155,355
-156,834
-158,307
-159,774
-161,239
-162,704
-164,17
-165,64
-167,115
-168,598
-170,09
-171,592
-173,104
-174,629
-176,166
-177,716
-179,28
-180,858
-182,45
-184,056
-185,676
-187,309
-188,952
-190,605
-192,265
-193,93
-195,595
-197,258
-198,914
-200,559
-202,189
-203,799
-205,385
-206,941
-208,462
-209,942
-211,377
-212,761
-214,088
-215,351
-216,543
-217,657
-218,687
-219,626
-220,467
-221,204
-221,831
-222,341
-222,73
-222,993
-223,123
-223,112
-222,949
-222,629
-222,148
-221,504
-220,699
-219,737
-218,626
-217,379
-216,016
-214,554
-213,01
-211,396
-209,722
-207,998
-206,235
-204,446
-202,651
-200,863
-199,088
-197,333
-195,597
-193,875
-192,152
-190,404
-188,587
-186,666
-184,605
-182,383
-179,993
-177,432
-174,706
-171,824
-168,794
-165,634
-162,371
-159,033
-155,657
-152,281
-148,949
-145,727
-142,7
-139,955
-137,579
-135,635
-134,16
-133,181
-132,701
-132,71
-133,194
-134,12
-135,447
-137,135
-139,148
-141,459
-144,052
-146,886
-149,891
-152,988
-156,09
-159,15
-162,15
-165,088
-167,989
-170,875
-173,807
-176,915
-180,247
-183,751
-187,285
-190,546
-193,254
-195,292
-196,473
-196,546
-195,534
-193,606
-191,208
-189,202
-188,112
-187,968
-188,825
-190,58
-192,692
-194,45
-194,493
-190,751
-181,847
-167,171
-146,225
-118,978
-85,807
-47,208
-4,67
39,474
83,545
126,524
167,422
205,599
240,676
272,023
299,523
323,718
343,589
357,674
365,962
367,403
362,807
353,407
336,351
311,188
276,137
229,114
173,325
108,186
36,198
-36,518
-104,978
-157,012
-183,559
-180,873
-149,568
-102,003
-52,059
-13,229
4,472
2,147
-14,655
-36,761
-55,387
-68,098
-75,853
-82,091
-89,702
-98,688
-107,407
-113,545
-116,069
-115,433
-112,665
-109,105
-105,633
-102,557
-100,197
-98,757
-98,221
-98,519
-99,418
-100,563
-101,691
-102,702
-103,471
-103,817
-103,604
-102,652
-100,929
-98,646
-95,92
-92,674
-88,953
-84,99
-81,127
-77,87
-75,38
-73,186
-70,836
-68,209
-65,161
-61,379
-56,338
-49,203
-39,558
-28,024
-15,487
-2,459
10,7
23,628
35,787
46,236
54,233
60,087
64,604
68,321
71,553
74,459
77,198
80,279
84,286
89,161
94,41
99,668
104,723
109,556
114,296
118,9
123,184
127,201
131,212
135,457
140,149
145,38
151,105
157,312
164,042
171,278
178,958
186,997
195,265
203,649
212,065
220,397
228,505
236,239
243,414
249,838
255,338
259,745
262,899
264,683
264,997
263,764
260,943
256,502
250,429
242,733
233,442
222,612
210,34
196,738
181,944
166,131
149,471
132,158
114,404
96,388
78,273
60,22
42,37
24,871
7,885
-8,458
-24,056
-38,831
-52,741
-65,757
-77,861
-89,073
-99,43
-108,99
-117,838
-126,043
-133,656
-140,746
-147,381
-153,646
-159,654
-165,488
-171,2
-176,836
-182,419
-187,965
-193,496
-199,003
-204,46
-209,835
-215,086
-220,178
-225,092
-229,794
-234,246
-238,398
-242,186
-245,568
-248,523
-251,034
-253,096
-254,707
-255,865
-256,584
-256,894
-256,822
-256,396
-255,64
-254,575
-253,227
-251,63
-249,818
-247,83
-245,699
-243,447
-241,097
-238,67
-236,184
-233,654
-231,092
-228,502
-225,893
-223,273
-220,651
-218,039
-215,444
-212,872
-210,328
-207,817
-205,344
-202,915
-200,534
-198,204
-195,93
-193,714
-191,56
-189,472
-187,451
-185,497
-183,609
-181,788
-180,031
-178,337
-176,703
-175,127
-173,608
-172,142
-170,729
-169,366
-168,049
-166,775
-165,542
-164,348
-163,192
-162,073
-160,992
-159,946
-158,934
-157,951
-157,002
-156,086
-155,192
-154,31
-153,431
-152,548
-151,667
-150,805
-149,951
-149,087
-148,243
-147,442
-146,702
-146,047
-145,457
-144,886
-144,351
-143,897
-143,398
-142,701
-141,906
-141,021
-139,999
-139,143
-137,617
-134,614
-131,377
-128,325
-127,662
-131,983
-138,364
-144,896
-148,523
-145,098
-138,25
-130,912
-125,14
-124,781
-126,591
-127,356
-127,761
-126,472
-126,562
-131,951
-139,293
-146,508
-150,283
-145,875
-137,065
-127,525
-119,585
-116,793
-116,882
-117,53
-118,491
-118,813
-119,421
-120,881
-122,64
-124,652
-126,6
-128,164
-129,249
-129,46
-128,686
-127,313
-125,612
-123,79
-121,983
-120,137
-118,306
-116,711
-115,401
-114,239
-113,114
-111,904
-110,559
-109,147
-107,682
-106,123
-104,463
-102,71
-100,877
-98,998
-97,077
-95,088
-93,013
-90,836
-88,549
-86,161
-83,679
-81,105
-78,445
-75,706
-72,899
-70,046
-67,164
-64,271
-61,38
-58,498
-55,637
-52,812
-50,042
-47,349
-44,747
-42,233
-39,805
-37,46
-35,181
-32,953
-30,739
-28,489
-26,164
-23,735
-21,185
-18,514
-15,722
-12,804
-9,764
-6,605
-3,347
-0,022
3,33
6,67
9,936
13,053
15,922
18,421
20,446
21,92
22,782
23,002
22,559
21,445
19,666
17,242
14,209
10,613
6,507
1,951
-2,973
-8,157
-13,473
-18,767
-23,906
-28,776
-33,29
-37,399
-41,083
-44,349
-47,224
-49,736
-51,912
-53,802
-55,445
-56,886
-58,2
-59,47
-60,802
-62,358
-64,315
-66,742
-69,655
-72,982
-76,432
-79,659
-82,341
-84,041
-84,344
-83,197
-80,622
-76,683
-72,268
-68,501
-66,019
-65,828
-67,627
-68,955
-69,509
-69,893
-71,015
-76,702
-84,503
-85,942
-73,144
-36,584
23,965
98,257
176,511
248,124
308,439
360,006
403,243
437,966
462,65
473,746
470,396
453,261
423,234
382,625
333,867
279,384
222,173
164,674
108,98
57,526
12,563
-24,229
-51,933
-70,705
-81,449
-85,069
-82,842
-76,644
-68,565
-60,735
-54,625
-50,776
-49,256
-49,967
-52,55
-56,39
-60,631
-64,247
-66,66
-67,811
-67,857
-67,12
-65,919
-64,521
-63,292
-62,638
-62,762
-63,681
-65,305
-67,433
-69,901
-72,593
-75,362
-78,063
-80,569
-82,764
-84,561
-85,9
-86,726
-86,999
-86,689
-85,771
-84,245
-82,125
-79,44
-76,234
-72,545
-68,404
-63,845
-58,901
-53,615
-48,047
-42,251
-36,282
-30,194
-24,034
-17,857
-11,727
-5,691
0,221
5,981
11,573
16,974
22,143
27,058
31,706
36,088
40,226
44,145
47,874
51,459
54,957
58,436
61,979
65,653
69,509
73,604
77,995
82,748
87,946
93,643
99,869
106,637
113,932
121,728
129,986
138,626
147,556
156,694
165,939
175,195
184,367
193,297
201,823
209,804
217,027
223,266
228,359
232,141
234,48
235,409
234,964
233,084
229,918
225,789
220,688
214,527
207,469
199,183
190,116
182,241
175,373
167,894
157,348
137,925
108,359
74,517
43,672
26,317
28,078
41,74
56,571
61,457
48,22
21,512
-8,377
-33,757
-48,282
-52,905
-53,845
-54,359
-56,689
-61,326
-66,124
-70,4
-74,383
-78,003
-81,667
-85,561
-89,432
-93,213
-96,943
-100,572
-104,077
-107,477
-110,763
-113,93
-117,006
-119,989
-122,853
-125,584
-128,163
-130,553
-132,712
-134,607
-136,212
-137,514
-138,513
-139,211
-139,611
-139,728
-139,589
-139,214
-138,625
-137,838
-136,863
-135,718
-134,422
-132,999
-131,473
-129,866
-128,195
-126,474
-124,715
-122,93
-121,125
-119,305
-117,47
-115,62
-113,757
-111,884
-110,005
-108,122
-106,238
-104,352
-102,466
-100,58
-98,695
-96,814
-94,935
-93,061
-91,192
-89,331
-87,48
-85,641
-83,816
-82,007
-80,216
-78,444
-76,693
-74,967
-73,266
-71,592
-69,948
-68,337
-66,76
-65,22
-63,718
-62,257
-60,838
-59,464
-58,136
-56,855
-55,624
-54,445
-53,318
-52,244
-51,227
-50,266
-49,362
-48,518
-47,734
-47,011
-46,351
-45,754
-45,221
-44,753
-44,349
-44,01
-43,734
-43,522
-43,37
-43,279
-43,246
-43,27
-43,348
-43,478
-43,659
-43,887
-44,161
-44,48
-44,839
-45,239
-45,675
-46,145
-46,646
-47,175
-47,729
-48,304
-48,894
-49,496
-50,105
-50,715
-51,323
-51,922
-52,508
-53,076
-53,62
-54,133
-54,61
-55,045
-55,433
-55,768
-56,045
-56,257
-56,399
-56,464
-56,446
-56,34
-56,138
-55,831
-55,409
-54,862
-54,185
-53,376
-52,431
-51,345
-50,117
-48,748
-47,245
-45,622
-43,89
-42,056
-40,127
-38,11
-36,017
-33,867
-31,673
-29,449
-27,194
-24,896
-22,552
-20,171
-17,753
-15,296
-12,772
-10,116
-7,295
-4,291
-1,099
2,257
5,794
9,589
13,619
17,767
21,912
25,882
29,636
33,331
36,985
40,449
43,736
46,956
50,276
54,049
58,261
62,424
66,266
69,713
72,548
74,58
75,523
74,832
72,508
69,183
65,287
61,122
57,041
53,23
49,995
47,878
46,955
46,82
47,198
47,851
48,59
49,411
50,17
50,558
50,474
50,008
49,208
48,135
46,789
45,092
43,076
40,878
38,628
36,452
34,474
32,832
31,717
31,361
32,003
33,865
37,144
42,054
48,839
57,674
68,624
81,602
96,345
112,556
129,977
148,281
167,027
185,879
204,767
223,934
243,963
265,429
288,573
313,546
340,567
369,46
399,379
428,817
455,581
477,347
492,185
498,149
493,242
476,237
447,871
410,616
367,372
320,711
269,997
213,39
152,217
90,545
38,852
9,517
8,906
37,546
83,96
130,817
165,706
180,023
176,932
166,914
156,029
149,55
147,342
144,213
138,982
131,467
122,199
114,156
108,802
106,197
106,359
108,501
111,55
114,871
118,113
120,982
123,309
125,081
126,284
127,009
127,575
128,297
129,335
130,791
132,686
134,96
137,596
140,562
143,745
147,028
150,315
153,519
156,589
159,481
162,128
164,463
166,442
168,037
169,253
170,116
170,657
170,927
170,98
170,885
170,731
170,606
170,588
170,758
171,195
171,981
173,214
174,976
177,319
180,275
183,846
188,019
192,77
198,053
203,815
209,991
216,508
223,302
230,314
237,475
244,718
251,97
259,151
266,202
273,087
279,777
286,259
292,517
298,544
304,347
309,933
315,308
320,472
325,414
330,119
334,588
338,811
342,768
346,427
349,717
352,558
354,869
356,567
357,57
357,792
357,142
355,54
352,927
349,253
344,478
338,558
331,433
323,063
313,445
302,609
290,637
277,623
263,668
248,891
233,423
217,414
201,021
184,388
167,643
150,91
134,327
118,05
102,26
87,117
72,739
59,213
46,585
34,893
24,153
14,353
5,456
-2,576
-9,785
-16,206
-21,882
-26,889
-31,324
-35,273
-38,87
-42,299
-45,742
-49,358
-53,237
-57,363
-61,711
-66,342
-71,193
-75,948
-80,358
-84,357
-87,98
-91,539
-94,397
-94,693
-91,74
-86,653
-83,713
-89,341
-105,96
-130,087
-152,646
-163,032
-156,984
-138,629
-118,091
-105,224
-103,919
-111,58
-121,763
-129,454
-133,112
-133,685
-133,359
-133,191
-133,082
-132,826
-132,224
-131,384
-130,578
-129,864
-129,207
-128,616
-128,094
-127,626
-127,175
-126,679
-126,095
-125,425
-124,691
-123,902
-123,058
-122,161
-121,215
-120,229
-119,214
-118,175
-117,112
-116,029
-114,929
-113,816
-112,693
-111,567
-110,44
-109,316
-108,2
-107,096
-106,009
-104,943
-103,901
-102,889
-101,91
-100,968
-100,066
-99,207
-98,394
-97,632
-96,923
-96,268
-95,668
-95,125
-94,639
-94,209
-93,835
-93,512
-93,241
-93,019
-92,847
-92,722
-92,647
-92,619
-92,641
-92,71
-92,827
-92,989
-93,192
-93,43
-93,699
-93,995
-94,317
-94,668
-95,05
-95,462
-95,902
-96,366
-96,847
-97,332
-97,806
-98,249
-98,642
-98,976
-99,244
-99,453
-99,612
-99,728
-99,803
-99,831
-99,801
-99,714
-99,568
-99,367
-99,125
-98,861
-98,62
-98,461
-98,431
-98,56
-98,867
-99,337
-99,948
-100,697
-101,559
-102,532
-103,683
-105,044
-106,605
-108,354
-110,224
-112,105
-113,93
-115,595
-116,778
-117,22
-117,039
-116,387
-115,456
-114,686
-113,254
-110,344
-107,053
-103,609
-102,227
-105,056
-109,285
-113,343
-112,975
-104,145
-89,127
-69,027
-49,738
-36,688
-30,393
-33,995
-43,724
-56,677
-73,352
-87,909
-100,285
-109,721
-112,063
-111,538
-110,036
-108,654
-111,503
-116,595
-121,93
-127,457
-131,63
-135,128
-139,101
-143,175
-147,032
-150,101
-151,676
-151,686
-150,529
-148,688
-146,484
-144,174
-142,057
-140,489
-139,841
-140,224
-141,269
-142,275
-142,724
-142,326
-140,776
-137,837
-133,399
-127,288
-119,576
-110,654
-100,576
-89,216
-76,61
-62,558
-46,651
-28,796
-8,704
14,12
39,609
67,661
98,216
130,729
164,444
198,588
231,694
261,899
287,627
307,079
318,622
321,076
313,264
294,554
265,562
227,762
183,084
134,015
83,083
32,996
-12,985
-51,961
-82,1
-102,586
-113,404
-115,054
-108,416
-95,107
-77,673
-58,941
-41,276
-26,217
-14,713
-7,531
-5,039
-6,902
-12,025
-18,774
-25,614
-31,597
-36,165
-38,746
-38,974
-36,944
-33,127
-28,332
-23,448
-19,035
-15,295
-12,51
-10,953
-10,535
-11,11
-12,429
-13,933
-15,076
-15,609
-15,168
-13,346
-10,052
-5,022
1,999
10,729
20,564
30,956
41,195
50,629
58,868
65,254
69,033
69,957
68,345
64,789
60,226
55,538
51,277
48,133
47,025
48,661
53,21
60,437
69,448
79,149
88,924
98,281
106,525
112,969
117,16
118,862
118,647
117,561
116,186
114,874
114,011
113,928
115,05
117,861
122,248
127,65
133,752
140,35
147,316
154,657
162,194
169,592
176,769
183,818
190,774
197,679
204,481
211,018
217,196
222,96
228,2
232,802
236,646
239,606
241,607
242,613
242,609
241,602
239,599
236,603
232,616
227,628
221,623
214,583
206,503
197,405
187,345
176,392
164,631
152,158
139,071
125,471
111,451
97,093
82,484
67,72
52,913
38,199
23,732
9,684
-3,772
-16,491
-28,357
-39,285
-49,219
-58,12
-65,961
-72,73
-78,425
-83,057
-86,653
-89,256
-90,938
-91,795
-91,954
-91,575
-90,835
-89,901
-88,924
-88,021
-87,283
-86,796
-86,628
-86,845
-87,497
-88,614
-90,207
-92,273
-94,789
-97,713
-100,98
-104,49
-108,124
-111,765
-115,301
-118,649
-121,746
-124,532
-126,956
-128,968
-130,531
-131,625
-132,241
-132,379
-132,046
-131,259
-130,047
-128,462
-126,571
-124,44
-122,136
-119,71
-117,198
-114,636
-112,054
-109,483
-106,944
-104,451
-102,014
-99,64
-97,338
-95,116
-92,977
-90,915
-88,917
-86,971
-85,063
-83,187
-81,339
-79,519
-77,728
-75,969
-74,246
-72,568
-70,944
-69,383
-67,887
-66,464
-65,114
-63,845
-62,663
-61,574
-60,582
-59,693
-58,911
-58,239
-57,679
-57,233
-56,902
-56,685
-56,582
-56,591
-56,713
-56,946
-57,29
-57,745
-58,309
-58,982
-59,762
-60,647
-61,636
-62,727
-63,917
-65,202
-66,578
-68,042
-69,589
-71,214
-72,911
-74,674
-76,499
-78,379
-80,311
-82,29
-84,312
-86,373
-88,469
-90,595
-92,747
-94,917
-97,1
-99,289
-101,476
-103,654
-105,817
-107,962
-110,087
-112,19
-114,267
-116,309
-118,307
-120,248
-122,114
-123,891
-125,56
-127,107
-128,524
-129,805
-130,955
-131,979
-132,886
-133,673
-134,334
-134,857
-135,239
-135,483
-135,598
-135,601
-135,519
-135,385
-135,24
-135,128
-135,078
-135,099
-135,183
-135,306
-135,441
-135,571
-135,692
-135,802
-135,888
-135,931
-135,907
-135,781
-135,507
-135,02
-134,233
-133,056
-131,427
-129,315
-126,726
-123,689
-120,248
-116,438
-112,294
-107,857
-103,183
-98,332
-93,366
-88,352
-83,376
-78,546
-74,006
-69,891
-66,3
-63,296
-60,907
-59,134
-57,965
-57,378
-57,335
-57,781
-58,648
-59,867
-61,377
-63,107
-64,967
-66,857
-68,65
-70,244
-71,585
-72,634
-73,37
-73,789
-73,888
-73,698
-73,3
-72,768
-72,175
-71,588
-71,027
-70,558
-70,304
-70,279
-70,421
-70,637
-70,736
-70,645
-70,452
-70,09
-69,346
-68,167
-66,573
-64,621
-62,5
-60,01
-56,496
-51,524
-44,886
-36,221
-25,162
-11,347
5,718
25,863
48,129
71,766
96,267
120,988
145,367
168,961
191,174
212,095
232,729
253,746
275,464
298,241
321,99
346,11
369,933
392,035
409,983
421,794
425,841
420,475
405,024
379,829
345,713
304,578
259,494
213,309
168,907
129,453
97,021
72,666
56,895
49,09
47,688
51,119
57,439
64,304
70,186
74,194
75,769
75,092
72,741
69,284
65,602
62,757
61,312
61,502
63,372
66,616
70,88
75,852
81,087
86,133
90,738
94,761
98,158
100,991
103,297
105,081
106,378
107,221
107,637
107,659
107,315
106,636
105,679
104,52
103,243
101,937
100,677
99,531
98,569
97,853
97,438
97,386
97,746
98,562
99,859
101,648
103,927
106,681
109,878
113,479
117,434
121,693
126,209
130,928
135,778
140,694
145,617
150,49
155,268
159,902
164,333
168,525
172,487
176,224
179,705
182,876
185,678
188,1
190,213
192,102
193,779
195,342
197,129
199,471
202,511
206,271
210,518
215,826
223,858
235,351
249,255
261,35
265,513
258,988
244,66
231,337
229,109
242,459
267,944
295,469
315,303
323,234
321,092
315,166
310,375
308,247
308,084
307,69
305,928
302,905
298,783
293,769
287,821
280,703
272,415
263,106
252,91
241,997
230,567
218,824
206,973
195,19
183,593
172,265
161,292
150,764
140,771
131,389
122,67
114,651
107,355
100,775
94,876
89,595
84,851
80,567
76,671
73,088
69,748
66,589
63,56
60,618
57,72
54,825
51,9
48,922
45,877
42,768
39,606
36,415
33,227
30,077
27
24,036
21,227
18,605
16,19
13,996
12,035
10,317
8,847
7,626
6,646
5,894
5,36
5,029
4,885
4,907
5,069
5,347
5,713
6,146
6,632
7,158
7,714
8,29
8,88
9,48
10,091
10,711
11,332
11,95
12,557
13,152
13,736
14,312
14,875
15,422
15,944
16,432
16,882
17,289
17,644
17,941
18,173
18,334
18,432
18,476
18,476
18,438
18,359
18,234
18,066
17,885
17,735
17,655
17,657
17,728
17,835
17,97
18,169
18,395
18,552
18,601
18,517
18,387
18,49
18,99
19,812
21,025
22,644
24,26
25,629
26,376
25,413
22,976
19,624
14,121
6,592
-4,246
-20,257
-37,545
-52,816
-62,096
-60,585
-51,358
-37,952
-23,562
-12,662
-4,308
2,404
6,813
9,18
7,919
2,218
-6,9
-18,556
-31,328
-43,891
-55,58
-65,549
-73,153
-78,376
-81,483
-83,043
-83,858
-84,398
-84,929
-85,8
-87,208
-89,208
-91,809
-94,8
-97,874
-100,913
-103,883
-106,757
-109,582
-112,357
-115,049
-117,694
-120,339
-122,996
-125,666
-128,321
-130,914
-133,429
-135,862
-138,213
-140,485
-142,663
-144,733
-146,694
-148,528
-150,229
-151,797
-153,217
-154,492
-155,638
-156,64
-157,492
-158,232
-158,888
-159,48
-160,04
-160,551
-160,978
-161,366
-161,774
-162,075
-162,11
-161,97
-161,646
-161,112
-160,705
-159,507
-156,625
-153,313
-149,953
-148,859
-152,799
-158,673
-164,396
-166,886
-161,94
-153,269
-144,035
-136,409
-133,973
-134,215
-134,592
-134,588
-132,683
-129,831
-127,243
-124,736
-122,505
-120,536
-118,665
-117,104
-116,008
-115,342
-115,082
-115,226
-115,742
-116,572
-117,649
-118,867
-120,125
-121,377
-122,58
-123,679
-124,618
-125,33
-125,749
-125,843
-125,612
-125,081
-124,302
-123,325
-122,205
-121,013
-119,846
-118,832
-118,092
-117,718
-117,79
-118,357
-119,474
-121,234
-123,653
-126,612
-129,894
-133,237
-136,398
-139,306
-141,926
-144,052
-145,536
-146,373
-146,661
-146,589
-146,257
-145,328
-143,012
-138,863
-132,648
-123,849
-113,024
-100,582
-85,288
-67,408
-45,909
-19,074
9,851
38,82
64,976
84,269
99,951
115,206
132,8
156,293
182,637
208,282
231,126
247,775
257,397
259,493
251,692
233,815
208,044
175,03
135,601
90,071
35,665
-24,339
-81,051
-126,639
-152,056
-156,454
-148,309
-135,157
-124,871
-120,615
-119,195
-118,806
-118,092
-116,823
-116,997
-119,027
-122,257
-125,935
-128,714
-129,962
-129,766
-128,223
-125,623
-122,363
-118,78
-115,261
-112,186
-109,717
-107,867
-106,596
-105,794
-105,358
-105,204
-105,223
-105,31
-105,39
-105,396
-105,268
-104,969
-104,431
-103,564
-102,31
-100,622
-98,487
-95,942
-93,013
-89,694
-86,038
-82,14
-78,07
-73,908
-69,693
-65,371
-60,937
-56,487
-51,94
-47,013
-41,688
-36,095
-30,191
-24,313
-17,871
-9
1,796
12,723
20,889
20,832
12,885
2,599
-4,244
0,429
17,126
38,384
58,175
70,814
76,864
82,594
90,3
98,154
100,927
93,693
78,434
63,973
59,965
71,266
95,081
121,599
141,366
150,201
149,021
144,033
141,881
144,146
149,025
151,704
145,575
131,493
116,334
107,218
112,974
133,544
159,669
184,44
200,684
206,035
206,225
204,341
200,894
196,91
188,848
173,663
155,133
135,893
120,269
113,833
113,159
114,369
114,408
109,038
100,172
89,76
77,457
63,786
47,819
29,499
10,388
-8,573
-26,51
-42,415
-55,309
-64,258
-69,03
-70,41
-69,622
-67,637
-65,029
-62,312
-60,232
-59,494
-60,424
-62,773
-65,88
-69,248
-72,688
-76,09
-79,313
-82,203
-84,627
-86,615
-88,43
-90,323
-92,507
-95,142
-98,209
-101,54
-104,945
-108,338
-111,613
-114,475
-116,384
-116,756
-115,302
-112,31
-108,475
-104,193
-99,636
-95,245
-91,809
-90,324
-91,588
-95,363
-100,509
-106,279
-112,372
-118,341
-123,572
-127,013
-127,498
-125,031
-120,78
-115,663
-110,151
-104,584
-99,181
-94,77
-92,606
-92,994
-95,187
-98,199
-101,191
-103,729
-105,705
-106,432
-104,76
-100,088
-92,532
-83,01
-72,755
-62,46
-52,453
-43,391
-36,191
-31,653
-30,3
-31,672
-34,731
-38,885
-43,818
-49,184
-54,622
-59,595
-63,491
-66,367
-68,749
-70,926
-73,051
-75,131
-77,036
-78,814
-80,659
-82,517
-84,147
-85,383
-86,089
-86,262
-86,044
-85,517
-84,721
-83,729
-82,607
-81,427
-80,283
-79,217
-78,223
-77,308
-76,473
-75,744
-75,199
-74,874
-74,756
-74,867
-75,24
-75,887
-76,816
-77,982
-79,266
-80,611
-82,073
-83,556
-84,752
-85,586
-86,144
-86,381
-86,592
-86,19
-83,305
-78,28
-72,84
-69,761
-74,334
-86,38
-100,583
-111,687
-112,211
-101,514
-86,709
-73,31
-67,21
-69,573
-75,086
-80,447
-83,451
-83,376
-82,383
-81,487
-80,606
-79,821
-78,806
-77,469
-76,102
-74,799
-73,512
-72,253
-71,039
-69,864
-68,717
-67,581
-66,415
-65,196
-63,945
-62,667
-61,351
-60,007
-58,656
-57,287
-55,897
-54,525
-53,194
-51,921
-50,741
-49,639
-48,557
-47,52
-46,574
-45,581
-44,397
-43,132
-41,763
-40,251
-38,956
-37,014
-33,58
-29,917
-26,372
-25,164
-29,027
-35,006
-40,979
-43,821
-39,527
-31,705
-23,391
-16,998
-15,154
-14,553
-13,852
-12,846
-12,153
-15,238
-20,396
-25,509
-27,896
-23,594
-15,81
-7,612
-1,122
0,397
-0,695
-2,027
-3,072
-2,37
-0,77
0,653
2,123
3,483
4,79
6,263
7,751
9,131
10,43
11,638
12,727
13,697
14,549
15,288
15,928
16,487
16,954
17,317
17,578
17,731
17,76
17,648
17,382
16,953
16,367
15,645
14,794
13,82
12,72
11,477
10,095
8,603
7,026
5,402
3,761
2,097
0,459
-1,055
-2,423
-3,668
-4,917
-6,445
-8,36
-10,577
-13,009
-15,544
-18,03
-20,357
-22,136
-22,691
-21,736
-19,391
-16,042
-12,369
-8,945
-6,147
-4,637
-5,315
-8,621
-14,533
-22,49
-31,413
-40,343
-48,484
-54,972
-58,964
-59,944
-57,751
-52,647
-45,238
-36,213
-26,341
-16,219
-6,241
3,532
13,471
23,976
35,381
48,28
63,46
81,56
103,147
128,202
155,93
185,609
216,592
247,935
278,578
307,115
331,664
350,835
363,913
370,21
369,229
360,532
343,585
318,763
287,476
251,264
211,749
170,681
129,674
90,791
56,56
28,589
7,466
-6,738
-14,587
-16,905
-14,543
-9,041
-2,539
3,411
7,891
10,41
11,052
10,035
7,566
4,294
1,207
-1,052
-2,169
-2,071
-1,001
0,804
3,172
5,794
8,295
10,454
12,177
13,473
14,476
15,284
15,951
16,544
17,118
17,707
18,344
19,044
19,8
20,605
21,471
22,401
23,4
24,473
25,611
26,801
28,029
29,294
30,6
31,976
33,462
35,087
36,876
38,849
41,025
43,438
46,11
49,053
52,277
55,786
59,588
63,697
68,123
72,855
77,875
83,15
88,633
94,287
100,076
105,958
111,893
117,843
123,77
129,657
135,489
141,246
146,908
152,446
157,836
163,074
168,161
173,105
177,923
182,634
187,263
191,851
196,438
201,044
205,681
210,338
214,993
219,633
224,248
228,824
233,343
237,771
242,063
246,181
250,079
253,694
256,946
259,723
261,911
263,425
264,202
264,2
263,4
261,774
259,293
255,943
251,716
246,618
240,658
233,836
226,148
217,619
208,31
198,319
187,768
176,757
165,367
153,667
141,718
129,587
117,355
105,088
92,851
80,713
68,755
57,079
45,811
35,054
24,873
15,299
6,334
-2,016
-9,731
-16,797
-23,204
-28,956
-34,065
-38,546
-42,407
-45,674
-48,4
-50,659
-52,557
-54,195
-55,647
-56,962
-58,174
-59,311
-60,404
-61,48
-62,549
-63,618
-64,69
-65,767
-66,86
-67,97
-69,077
-70,151
-71,143
-72
-72,691
-73,192
-73,493
-73,588
-73,475
-73,155
-72,646
-71,965
-71,129
-70,153
-69,047
-67,822
-66,496
-65,093
-63,638
-62,161
-60,683
-59,22
-57,787
-56,393
-55,045
-53,748
-52,5
-51,298
-50,14
-49,027
-47,96
-46,938
-45,964
-45,035
-44,151
-43,31
-42,513
-41,757
-41,043
-40,37
-39,74
-39,153
-38,608
-38,107
-37,648
-37,23
-36,854
-36,521
-36,229
-35,98
-35,773
-35,608
-35,484
-35,401
-35,358
-35,358
-35,4
-35,482
-35,609
-35,777
-35,993
-36,274
-36,607
-36,971
-37,347
-37,709
-38,066
-38,454
-38,872
-39,293
-39,738
-40,246
-40,896
-41,777
-42,831
-43,943
-45,045
-46,137
-47,218
-48,117
-48,741
-49,143
-49,423
-49,968
-50,331
-48,95
-46,07
-43,039
-42,625
-49,85
-64,017
-80,013
-92,444
-93,738
-84,012
-70,337
-57,99
-52,854
-55,771
-61,638
-67,651
-71,9
-73,624
-74,718
-75,998
-77,257
-78,558
-79,625
-80,263
-80,632
-80,888
-81,048
-81,16
-81,316
-81,471
-81,573
-81,625
-81,593
-81,454
-81,23
-80,914
-80,487
-79,964
-79,359
-78,678
-77,939
-77,142
-76,283
-75,367
-74,397
-73,376
-72,31
-71,203
-70,057
-68,878
-67,666
-66,428
-65,166
-63,883
-62,583
-61,267
-59,937
-58,598
-57,252
-55,904
-54,555
-53,209
-51,867
-50,533
-49,208
-47,896
-46,598
-45,318
-44,058
-42,819
-41,605
-40,415
-39,252
-38,117
-37,008
-35,926
-34,87
-33,839
-32,834
-31,857
-30,907
-29,987
-29,098
-28,243
-27,422
-26,636
-25,886
-25,169
-24,484
-23,829
-23,205
-22,613
-22,057
-21,538
-21,056
-20,611
-20,199
-19,813
-19,442
-19,07
-18,677
-18,254
-17,79
-17,282
-16,733
-16,147
-15,528
-14,884
-14,214
-13,515
-12,787
-12,027
-11,239
-10,44
-9,651
-8,909
-8,259
-7,734
-7,365
-7,171
-7,146
-7,28
-7,548
-7,917
-8,367
-8,882
-9,443
-10,041
-10,651
-11,235
-11,748
-12,121
-12,264
-12,1
-11,553
-10,569
-9,134
-7,252
-4,949
-2,279
0,717
3,996
7,505
11,199
15,023
18,9
22,75
26,462
29,891
32,898
35,346
37,121
38,162
38,426
37,897
36,597
34,552
31,802
28,407
24,423
19,907
14,937
9,597
4,004
-1,687
-7,321
-12,752
-17,856
-22,557
-26,795
-30,532
-33,757
-36,477
-38,734
-40,598
-42,138
-43,433
-44,572
-45,636
-46,76
-48,132
-49,867
-52,007
-54,502
-57,156
-59,821
-62,412
-64,776
-66,776
-68,427
-69,882
-71,552
-74,038
-77,663
-82,472
-88,378
-94,963
-101,498
-106,955
-109,812
-108,524
-102,099
-90,027
-72,309
-49,527
-22,57
7,191
37,816
67,693
95,743
121,344
144,777
166,784
188,115
209,837
232,248
254,008
273,743
290,65
305,867
322,257
341,077
359,393
368,148
356,712
317,055
248,398
161,769
73,075
-0,612
-46,994
-65,538
-62,963
-50,695
-39,041
-32,035
-29,217
-26,918
-22,755
-16,995
-11,079
-7,386
-6,756
-8,38
-11,279
-14,129
-15,915
-16,424
-15,609
-13,556
-10,628
-7,185
-3,548
-0,108
2,81
5,084
6,699
7,729
8,34
8,682
8,875
9,051
9,326
9,788
10,524
11,605
13,07
14,949
17,245
19,944
23,026
26,456
30,182
34,124
38,202
42,335
46,452
50,502
54,433
58,185
61,694
64,905
67,784
70,333
72,578
74,55
76,28
77,803
79,164
80,435
81,688
82,985
84,382
85,919
87,646
89,631
91,942
94,641
97,765
101,318
105,285
109,654
114,402
119,511
124,953
130,684
136,662
142,862
149,256
155,832
162,564
169,403
176,296
183,188
190,027
196,782
203,423
209,921
216,247
222,373
228,268
233,904
239,248
244,246
248,843
252,967
256,541
259,514
261,832
263,458
264,364
264,522
263,909
262,515
260,331
257,359
253,61
249,094
243,828
237,848
231,199
223,94
216,147
207,882
199,207
190,183
180,862
171,3
161,552
151,659
141,659
131,587
121,474
111,365
101,308
91,34
81,503
71,833
62,366
53,157
44,258
35,71
27,549
19,8
12,487
5,639
-0,715
-6,55
-11,85
-16,616
-20,857
-24,578
-27,797
-30,543
-32,862
-34,823
-36,492
-37,919
-39,145
-40,2
-41,112
-41,915
-42,639
-43,302
-43,92
-44,501
-45,054
-45,59
-46,115
-46,62
-47,085
-47,474
-47,755
-47,913
-47,938
-47,83
-47,59
-47,218
-46,721
-46,113
-45,413
-44,635
-43,79
-42,887
-41,936
-40,954
-39,962
-38,986
-38,049
-37,165
-36,346
-35,603
-34,944
-34,374
-33,896
-33,505
-33,199
-32,976
-32,837
-32,782
-32,813
-32,927
-33,121
-33,393
-33,74
-34,16
-34,652
-35,211
-35,836
-36,524
-37,275
-38,086
-38,958
-39,89
-40,877
-41,92
-43,014
-44,159
-45,35
-46,585
-47,86
-49,172
-50,518
-51,896
-53,303
-54,736
-56,193
-57,671
-59,168
-60,682
-62,211
-63,753
-65,307
-66,87
-68,442
-70,02
-71,604
-73,192
-74,784
-76,379
-77,975
-79,572
-81,17
-82,767
-84,362
-85,955
-87,544
-89,129
-90,708
-92,281
-93,846
-95,404
-96,953
-98,494
-100,027
-101,551
-103,067
-104,575
-106,075
-107,566
-109,05
-110,525
-111,993
-113,451
-114,901
-116,341
-117,771
-119,189
-120,595
-121,988
-123,366
-124,727
-126,07
-127,394
-128,696
-129,974
-131,228
-132,455
-133,655
-134,825
-135,966
-137,075
-138,153
-139,197
-140,207
-141,182
-142,12
-143,02
-143,881
-144,701
-145,479
-146,213
-146,903
-147,547
-148,145
-148,695
-149,198
-149,653
-150,06
-150,418
-150,728
-150,989
-151,203
-151,37
-151,49
-151,566
-151,597
-151,585
-151,531
-151,436
-151,301
-151,127
-150,915
-150,664
-150,375
-150,048
-149,685
-149,284
-148,847
-148,374
-147,865
-147,321
-146,742
-146,128
-145,48
-144,798
-144,082
-143,333
-142,55
-141,734
-140,885
-140,004
-139,091
-138,146
-137,17
-136,165
-135,132
-134,072
-132,986
-131,876
-130,743
-129,588
-128,413
-127,22
-126,009
-124,783
-123,542
-122,291
-121,032
-119,769
-118,506
-117,248
-116,001
-114,769
-113,558
-112,374
-111,219
-110,098
-109,016
-107,979
-106,995
-106,071
-105,208
-104,41
-103,677
-103,005
-102,39
-101,823
-101,288
-100,772
-100,261
-99,746
-99,22
-98,679
-98,121
-97,543
-96,942
-96,32
-95,686
-95,05
-94,426
-93,839
-93,31
-92,876
-92,581
-92,471
-92,586
-92,965
-93,634
-94,606
-95,885
-97,457
-99,308
-101,411
-103,724
-106,201
-108,778
-111,382
-113,938
-116,363
-118,551
-120,399
-121,796
-122,628
-122,81
-122,28
-121,001
-118,969
-116,19
-112,691
-108,521
-103,747
-98,465
-92,785
-86,812
-80,66
-74,471
-68,399
-62,615
-57,312
-52,645
-48,733
-45,668
-43,503
-42,274
-41,998
-42,658
-44,203
-46,559
-49,638
-53,356
-57,625
-62,328
-67,324
-72,439
-77,474
-82,266
-86,685
-90,634
-94,042
-96,856
-99,035
-100,561
-101,463
-101,792
-101,609
-100,986
-99,999
-98,736
-97,335
-95,995
-94,879
-94,062
-93,51
-93,048
-92,495
-91,737
-90,639
-89,056
-86,977
-84,595
-82,373
-80,986
-80,961
-82,548
-85,769
-90,419
-96,07
-101,643
-105,41
-105,784
-101,305
-91,644
-78,234
-61,176
-39,788
-13,028
23,037
68,293
117,301
163,463
194,724
204,026
195,545
177,527
167,196
179,489
216,124
272,404
331,687
374,495
391,76
379,922
345,863
301,559
251,295
196,898
138,107
74,799
15,768
-28,42
-52,058
-54,934
-45,219
-32,575
-21,794
-13,492
-4,877
6,038
18,552
30,663
39,903
45,022
45,92
43,205
38,192
32,243
26,518
21,771
18,241
16,147
15,848
17,25
19,948
23,495
27,137
30,432
33,613
35,785
36,054
35,573
34,716
35,826
41,839
50,116
58,839
65,216
65,338
62,666
60,151
59,758
64,695
72,496
80,666
88,596
94,783
100,018
105,314
110,387
115,283
119,843
123,785
127,204
130,18
132,66
134,64
136,157
137,262
138
138,425
138,584
138,519
138,316
138,083
137,921
137,955
138,324
139,149
140,538
142,584
145,339
148,837
153,101
158,135
163,949
170,559
177,962
186,138
195,057
204,656
214,854
225,542
236,572
247,779
259,017
270,15
281,068
291,68
301,889
311,599
320,706
329,09
336,647
343,279
348,894
353,416
356,789
358,982
360,016
359,939
358,798
356,625
353,445
349,271
344,128
338,062
331,125
323,38
314,899
305,765
296,072
285,928
275,44
264,7
253,774
242,705
231,542
220,35
209,202
198,181
187,361
176,8
166,555
156,682
147,224
138,208
129,643
121,519
113,82
106,526
99,614
93,069
86,858
80,958
75,351
70,002
64,875
59,94
55,14
50,452
45,92
41,502
37,086
32,59
27,896
23,025
18,203
13,52
8,922
4,547
0,639
-2,519
-4,491
-5,257
-5,289
-4,835
-3,949
-2,86
-1,799
-1,128
-1,485
-2,923
-4,862
-6,957
-9,013
-10,797
-12,241
-13,104
-12,865
-11,481
-9,389
-6,876
-4,182
-1,467
1,32
4,083
6,539
8,631
10,481
12,191
13,897
15,651
17,366
19,027
20,651
22,254
23,893
25,525
27,007
28,241
29,121
29,662
30,076
30,443
30,684
30,902
31,305
32,131
33,776
36,249
39,074
41,993
44,941
47,691
50,025
51,608
51,837
50,655
48,624
46,088
43,252
40,356
37,489
34,898
33,105
32,18
31,73
31,496
31,263
30,886
30,417
29,777
28,723
27,217
25,413
23,421
21,367
19,305
17,168
14,95
12,698
10,424
8,12
5,779
3,371
0,899
-1,606
-4,124
-6,639
-9,14
-11,631
-14,11
-16,571
-19,01
-21,421
-23,8
-26,142
-28,446
-30,709
-32,929
-35,101
-37,224
-39,298
-41,322
-43,297
-45,224
-47,098
-48,917
-50,681
-52,388
-54,039
-55,634
-57,172
-58,652
-60,076
-61,443
-62,754
-64,009
-65,209
-66,353
-67,442
-68,478
-69,461
-70,392
-71,271
-72,1
-72,879
-73,608
-74,289
-74,921
-75,507
-76,047
-76,542
-76,993
-77,403
-77,77
-78,096
-78,38
-78,622
-78,82
-78,974
-79,081
-79,142
-79,154
-79,117
-79,031
-78,896
-78,712
-78,48
-78,2
-77,871
-77,491
-77,059
-76,573
-76,031
-75,43
-74,768
-74,043
-73,253
-72,399
-71,481
-70,496
-69,444
-68,318
-67,115
-65,836
-64,484
-63,062
-61,575
-60,029
-58,437
-56,817
-55,186
-53,561
-51,953
-50,361
-48,79
-47,243
-45,724
-44,239
-42,787
-41,352
-39,927
-38,504
-37,075
-35,634
-34,159
-32,614
-30,973
-29,216
-27,341
-25,361
-23,29
-21,136
-18,923
-16,675
-14,437
-12,274
-10,235
-8,354
-6,672
-5,222
-4,053
-3,232
-2,801
-2,775
-3,158
-3,929
-5,072
-6,577
-8,411
-10,523
-12,842
-15,273
-17,743
-20,204
-22,604
-24,898
-27,033
-28,951
-30,634
-32,11
-33,415
-34,591
-35,669
-36,651
-37,57
-38,498
-39,522
-40,752
-42,272
-44,101
-46,269
-48,825
-51,747
-54,964
-58,315
-61,477
-64,148
-66,188
-67,481
-67,946
-67,669
-66,725
-65,222
-63,509
-61,862
-60,229
-58,533
-56,58
-53,786
-49,682
-43,884
-35,754
-24,869
-11,199
5,436
25,087
47,211
71,396
97,196
123,786
150,596
177,065
201,947
223,843
241,649
253,914
259,374
257,112
245,959
225,368
196,03
159,19
116,499
70,519
23,921
-20,463
-59,287
-90,112
-111,783
-123,662
-125,812
-119,509
-106,536
-89,371
-71,305
-54,766
-41,18
-31,804
-27,432
-27,956
-32,785
-40,553
-49,128
-57,097
-63,76
-68,418
-70,596
-70,204
-67,351
-62,684
-57,326
-51,951
-46,842
-42,258
-38,326
-35,125
-32,711
-30,893
-29,29
-27,688
-25,998
-24,187
-22,299
-20,33
-18,254
-16,103
-13,931
-11,766
-9,609
-7,421
-5,128
-2,687
-0,079
2,706
5,663
8,792
12,091
15,559
19,193
22,988
26,943
31,055
35,316
39,705
44,195
48,74
53,276
57,749
62,116
66,344
70,426
74,357
78,131
81,744
85,196
88,49
91,646
94,693
97,655
100,56
103,438
106,327
109,289
112,375
115,626
119,072
122,718
126,572
130,65
134,971
139,552
144,395
149,478
154,76
160,209
165,792
171,472
177,2
182,91
188,538
194,034
199,359
204,482
209,353
213,898
218,022
221,626
224,615
226,911
228,448
229,154
228,963
227,83
225,719
222,614
218,495
213,33
207,072
199,688
191,175
181,554
170,892
159,276
146,812
133,621
119,829
105,574
90,988
76,183
61,263
46,336
31,509
16,902
2,664
-11,069
-24,17
-36,512
-48,013
-58,619
-68,302
-77,067
-84,932
-91,917
-98,05
-103,353
-107,846
-111,562
-114,529
-116,773
-118,36
-119,362
-119,87
-120,006
-119,862
-119,51
-119,018
-118,426
-117,778
-117,13
-116,518
-115,965
-115,501
-115,148
-114,943
-114,942
-115,169
-115,629
-116,302
-117,135
-118,089
-119,138
-120,243
-121,365
-122,457
-123,456
-124,324
-125,048
-125,608
-125,985
-126,149
-126,048
-125,653
-124,955
-123,956
-122,677
-121,133
-119,334
-117,309
-115,098
-112,748
-110,316
-107,84
-105,336
-102,827
-100,331
-97,875
-95,491
-93,199
-91,009
-88,93
-86,967
-85,128
-83,421
-81,843
-80,383
-79,027
-77,758
-76,569
-75,458
-74,426
-73,47
-72,593
-71,792
-71,073
-70,441
-69,903
-69,458
-69,108
-68,853
-68,694
-68,635
-68,681
-68,833
-69,093
-69,46
-69,933
-70,51
-71,188
-71,963
-72,829
-73,78
-74,811
-75,917
-77,094
-78,336
-79,64
-80,999
-82,41
-83,867
-85,365
-86,896
-88,454
-90,033
-91,626
-93,225
-94,826
-96,42
-98,003
-99,569
-101,112
-102,627
-104,109
-105,554
-106,957
-108,314
-109,622
-110,879
-112,081
-113,228
-114,319
-115,351
-116,326
-117,242
-118,099
-118,897
-119,636
-120,315
-120,936
-121,499
-122,004
-122,452
-122,846
-123,186
-123,474
-123,712
-123,901
-124,043
-124,138
-124,188
-124,193
-124,153
-124,069
-123,938
-123,761
-123,538
-123,266
-122,946
-122,577
-122,157
-121,685
-121,162
-120,584
-119,95
-119,257
-118,502
-117,68
-116,789
-115,825
-114,785
-113,667
-112,468
-111,187
-109,825
-108,381
-106,855
-105,244
-103,544
-101,754
-99,875
-97,911
-95,87
-93,765
-91,61
-89,422
-87,221
-85,021
-82,835
-80,668
-78,517
-76,382
-74,26
-72,156
-70,079
-68,04
-66,046
-64,103
-62,216
-60,376
-58,573
-56,786
-54,99
-53,17
-51,324
-49,464
-47,622
-45,837
-44,15
-42,599
-41,205
-39,986
-38,95
-38,098
-37,426
-36,94
-36,655
-36,596
-36,808
-37,31
-38,109
-39,185
-40,497
-41,983
-43,573
-45,199
-46,8
-48,342
-49,813
-51,227
-52,619
-54,012
-55,41
-56,789
-58,114
-59,379
-60,595
-61,803
-63,067
-64,434
-65,976
-67,808
-69,967
-72,398
-74,958
-77,326
-79,184
-80,427
-80,978
-80,792
-80,067
-78,981
-77,793
-77,083
-77,205
-78,004
-79,169
-80,069
-79,673
-77,27
-72,198
-63,499
-50,713
-33,941
-13,509
9,601
33,967
58,723
83,218
106,73
129,019
149,946
169,381
187,78
205,757
223,229
239,612
253,932
264,861
271,383
272,675
267,637
255,372
235,751
209,441
177,956
143,232
107,056
71,247
37,887
8,862
-14,568
-31,887
-43,393
-49,812
-51,959
-50,913
-48,09
-44,846
-42,121
-40,386
-39,656
-39,715
-40,322
-41,092
-41,449
-40,881
-39,14
-36,226
-32,308
-27,64
-22,478
-17,104
-11,849
-7,016
-2,812
0,646
3,141
4,357
4,395
3,685
2,444
1,168
-0,392
-3,801
-8,563
-12,963
-14,791
-8,755
6,435
26,388
45,067
50,795
35,852
3,549
-36,844
-67,711
-74,281
-54,741
-16,496
24,424
54,412
69,67
72,852
71,458
70,947
72,114
74,236
75,856
76,401
76,427
76,488
77,038
78,464
81,119
84,943
89,371
93,967
98,477
102,828
107,217
111,691
116,057
120,298
124,573
129,016
133,77
138,876
144,235
149,805
155,616
161,678
167,975
174,468
181,086
187,772
194,49
201,193
207,841
214,402
220,844
227,135
233,239
239,113
244,698
249,929
254,722
258,968
262,561
265,409
267,432
268,572
268,783
268,021
266,237
263,386
259,423
254,318
248,068
240,688
232,22
222,727
212,303
201,084
189,221
176,873
164,189
151,307
138,353
125,465
112,792
100,472
88,647
77,436
66,927
57,2
48,308
40,285
33,137
26,828
21,296
16,464
12,264
8,629
5,497
2,788
0,406
-1,741
-3,743
-5,67
-7,573
-9,502
-11,503
-13,609
-15,831
-18,157
-20,544
-22,95
-25,343
-27,692
-29,972
-32,149
-34,169
-35,983
-37,552
-38,852
-39,869
-40,588
-40,984
-41,04
-40,759
-40,172
-39,331
-38,287
-37,076
-35,729
-34,269
-32,731
-31,158
-29,592
-28,064
-26,596
-25,206
-23,922
-22,782
-21,827
-21,071
-20,501
-20,084
-19,787
-19,594
-19,495
-19,481
-19,537
-19,642
-19,779
-19,941
-20,124
-20,319
-20,507
-20,653
-20,724
-20,702
-20,591
-20,409
-20,172
-19,883
-19,546
-19,161
-18,735
-18,277
-17,786
-17,255
-16,677
-16,05
-15,381
-14,685
-13,976
-13,262
-12,541
-11,808
-11,059
-10,292
-9,51
-8,711
-7,893
-7,055
-6,203
-5,346
-4,494
-3,655
-2,833
-2,032
-1,256
-0,511
0,197
0,862
1,476
2,035
2,532
2,961
3,316
3,592
3,786
3,896
3,92
3,858
3,71
3,478
3,163
2,77
2,298
1,747
1,119
0,415
-0,363
-1,211
-2,128
-3,113
-4,159
-5,262
-6,415
-7,608
-8,841
-10,108
-11,408
-12,74
-14,091
-15,449
-16,8
-18,126
-19,431
-20,718
-21,977
-23,203
-24,391
-25,517
-26,612
-27,713
-28,755
-29,696
-30,486
-31,046
-31,461
-31,849
-32,166
-32,388
-32,649
-33,018
-33,666
-34,813
-36,24
-37,695
-39,178
-40,626
-41,881
-42,888
-43,372
-43,012
-42,086
-40,88
-39,448
-37,941
-36,444
-34,956
-33,728
-33,027
-32,649
-32,407
-32,231
-31,971
-31,626
-31,239
-30,684
-29,843
-28,805
-27,64
-26,399
-25,175
-23,96
-22,73
-21,531
-20,392
-19,312
-18,3
-17,353
-16,46
-15,643
-14,915
-14,269
-13,704
-13,199
-12,725
-12,256
-11,758
-11,184
-10,505
-9,692
-8,725
-7,598
-6,303
-4,84
-3,226
-1,483
0,356
2,242
4,123
5,936
7,597
9,034
10,174
10,936
11,273
11,146
10,524
9,395
7,755
5,615
3,008
-0,017
-3,401
-7,069
-10,934
-14,904
-18,862
-22,71
-26,374
-29,787
-32,926
-35,781
-38,339
-40,607
-42,603
-44,352
-45,915
-47,366
-48,764
-50,183
-51,702
-53,376
-55,322
-57,624
-60,222
-63,037
-65,938
-68,738
-71,403
-73,923
-76,087
-77,681
-78,641
-78,817
-78,163
-76,7
-73,97
-69,455
-62,965
-54,368
-43,595
-30,862
-16,182
0,536
18,73
37,73
57,214
77,006
97,296
118,69
141,485
165,587
191,203
218,538
247,29
276,599
304,883
329,872
349,322
361,597
365,155
358,467
340,816
312,556
275,052
230,684
182,418
133,107
85,598
42,94
7,672
-19,803
-39,874
-52,092
-57,718
-56,097
-46,412
-33,837
-21,83
-14,345
-16,05
-23,06
-31,474
-38,323
-39,233
-35,95
-30,938
-24,86
-19,439
-14,405
-9,489
-5,858
-4,104
-4,476
-6,766
-10,396
-14,926
-19,991
-25,118
-29,651
-33,102
-35,475
-37,155
-38,478
-39,61
-40,579
-41,372
-42,139
-43,019
-43,951
-44,728
-45,161
-45,159
-44,74
-43,983
-42,912
-41,52
-39,828
-37,882
-35,746
-33,469
-31,073
-28,557
-25,917
-23,155
-20,277
-17,285
-14,175
-10,94
-7,57
-4,054
-0,392
3,411
7,344
11,385
15,517
19,723
23,989
28,303
32,653
37,021
41,392
45,744
50,061
54,338
58,573
62,766
66,932
71,094
75,285
79,563
83,976
88,558
93,336
98,318
103,507
108,908
114,524
120,353
126,39
132,601
138,937
145,343
151,735
158,01
164,041
169,673
174,754
179,16
182,779
185,522
187,315
188,081
187,747
186,256
183,545
179,579
174,356
167,892
160,246
151,515
141,825
131,337
120,217
108,608
96,651
84,478
72,204
59,952
47,849
36,021
24,618
13,79
3,651
-5,712
-14,25
-21,962
-28,862
-34,989
-40,396
-45,123
-49,219
-52,734
-55,703
-58,16
-60,153
-61,746
-63,051
-64,202
-65,308
-66,448
-67,674
-69,002
-70,449
-72,024
-73,718
-75,522
-77,42
-79,396
-81,453
-83,608
-85,868
-88,214
-90,586
-92,893
-95,062
-97,048
-98,821
-100,371
-101,681
-102,74
-103,551
-104,132
-104,502
-104,676
-104,653
-104,414
-103,951
-103,272
-102,407
-101,41
-100,322
-99,17
-97,981
-96,776
-95,572
-94,395
-93,269
-92,199
-91,192
-90,26
-89,387
-88,575
-87,843
-87,155
-86,443
-85,673
-84,804
-83,812
-82,775
-81,765
-80,782
-79,982
-79,682
-79,899
-80,498
-81,559
-82,723
-84,263
-87,735
-92,734
-97,664
-100,178
-94,619
-79,491
-59,284
-40,155
-33,481
-46,02
-73,304
-106,783
-132,014
-137,696
-124,815
-100,38
-76,278
-62,704
-61,294
-68,652
-78,617
-86,21
-90,237
-91,637
-92,204
-92,888
-93,639
-94,234
-94,449
-94,423
-94,458
-94,66
-95,077
-95,707
-96,482
-97,406
-98,495
-99,557
-100,401
-101,115
-101,704
-102,144
-102,764
-102,672
-101
-98,992
-97,028
-97,385
-102,783
-110,202
-117,629
-122,069
-119,406
-113,277
-106,766
-101,984
-102,423
-105,585
-108,938
-111,919
-112,986
-113,033
-113,212
-113,304
-113,454
-113,588
-113,473
-113,263
-113,081
-112,891
-112,685
-112,481
-112,278
-112,069
-111,852
-111,608
-111,312
-110,977
-110,617
-110,229
-109,817
-109,383
-108,929
-108,459
-107,981
-107,496
-107,003
-106,505
-106,004
-105,501
-104,999
-104,499
-104,002
-103,51
-103,025
-102,548
-102,08
-101,621
-101,17
-100,727
-100,29
-99,857
-99,424
-98,988
-98,546
-98,096
-97,633
-97,156
-96,661
-96,145
-95,607
-95,045
-94,453
-93,829
-93,165
-92,455
-91,696
-90,883
-90,012
-89,076
-88,071
-86,991
-85,834
-84,597
-83,277
-81,867
-80,358
-78,745
-77,029
-75,216
-73,316
-71,335
-69,282
-67,17
-65,018
-62,847
-60,676
-58,516
-56,368
-54,236
-52,126
-50,05
-48,021
-46,043
-44,104
-42,196
-40,305
-38,424
-36,547
-34,657
-32,726
-30,727
-28,64
-26,452
-24,168
-21,801
-19,383
-16,949
-14,528
-12,157
-9,862
-7,7
-5,778
-4,13
-2,698
-1,35
0,064
1,559
2,952
4,096
5,029
5,694
5,879
5,089
2,62
-1,746
-7,58
-14,259
-21,323
-28,352
-34,895
-40,019
-42,312
-41,138
-36,897
-30,593
-23,377
-16,107
-9,381
-4,228
-2,188
-4,107
-9,852
-18,472
-28,545
-39,061
-49,44
-58,914
-66,439
-71,265
-73,126
-72,322
-69,566
-65,248
-59,408
-52,047
-43,179
-32,868
-21,215
-8,238
6,079
21,597
38,075
55,19
72,516
89,81
107,143
124,834
143,488
163,719
185,807
209,862
235,936
263,595
291,767
318,858
342,642
360,76
371,454
373,289
365,009
346,302
317,872
281,195
238,747
193,517
148,111
105,155
67,39
36,563
13,45
-1,833
-10,135
-12,851
-11,243
-6,917
-1,854
2,648
5,894
7,537
7,834
7,257
6,145
5,083
4,884
5,967
8,438
12,23
16,969
22,253
27,788
33,209
38,106
42,234
45,473
47,784
49,235
49,9
49,819
49,061
47,747
46,009
43,936
41,577
38,988
36,253
33,509
30,944
28,656
26,604
24,922
24
23,959
24,718
26,327
28,411
31,646
38,155
47,44
57,499
65,022
63,846
54,32
42,495
34,444
38,802
56,043
77,979
98,277
110,094
112,28
110,936
109,78
111,356
116,396
122,394
128,234
134,008
139,644
145,517
151,706
157,856
163,853
169,749
175,533
181,182
186,711
192,146
197,549
203,029
208,652
214,419
220,334
226,389
232,57
238,869
245,27
251,745
258,265
264,788
271,267
277,663
283,911
289,923
295,582
300,735
305,232
308,954
311,802
313,702
314,6
314,438
313,182
310,825
307,364
302,812
297,185
290,484
282,748
274,056
264,52
254,296
243,552
232,428
221,059
209,572
198,073
186,664
175,423
164,395
153,63
143,179
133,1
123,469
114,33
105,691
97,538
89,831
82,514
75,541
68,846
62,367
56,074
49,945
43,976
38,179
32,529
27,011
21,637
16,358
11,097
5,807
0,445
-4,985
-10,383
-15,699
-20,976
-26,088
-30,715
-34,765
-38,318
-41,344
-44,145
-46,198
-45,714
-42,987
-39,699
-38,483
-44,422
-57,458
-72,449
-84,358
-86,023
-76,684
-63,238
-51,036
-45,747
-48,64
-54,612
-60,449
-64,059
-64,694
-64,435
-64,298
-64,202
-64,241
-64,113
-63,728
-63,37
-63,131
-62,963
-62,871
-62,871
-62,953
-63,103
-63,296
-63,486
-63,657
-63,833
-64,02
-64,215
-64,415
-64,619
-64,824
-65,035
-65,251
-65,466
-65,677
-65,881
-66,075
-66,258
-66,429
-66,585
-66,727
-66,852
-66,96
-67,051
-67,123
-67,177
-67,212
-67,229
-67,229
-67,212
-67,179
-67,132
-67,072
-67,002
-66,924
-66,839
-66,75
-66,657
-66,564
-66,471
-66,381
-66,295
-66,214
-66,141
-66,077
-66,024
-65,983
-65,956
-65,944
-65,947
-65,966
-66,002
-66,053
-66,12
-66,202
-66,299
-66,411
-66,536
-66,675
-66,826
-66,988
-67,16
-67,341
-67,528
-67,72
-67,915
-68,11
-68,305
-68,497
-68,684
-68,865
-69,038
-69,202
-69,355
-69,495
-69,622
-69,734
-69,83
-69,908
-69,969
-70,01
-70,033
-70,036
-70,021
-69,986
-69,933
-69,861
-69,772
-69,664
-69,54
-69,398
-69,241
-69,069
-68,882
-68,682
-68,47
-68,247
-68,015
-67,774
-67,526
-67,273
-67,014
-66,751
-66,485
-66,217
-65,947
-65,677
-65,407
-65,138
-64,87
-64,605
-64,341
-64,078
-63,818
-63,559
-63,301
-63,044
-62,786
-62,528
-62,268
-62,006
-61,74
-61,47
-61,195
-60,912
-60,622
-60,322
-60,012
-59,689
-59,353
-59,004
-58,639
-58,259
-57,862
-57,448
-57,017
-56,567
-56,1
-55,614
-55,109
-54,586
-54,044
-53,485
-52,909
-52,317
-51,709
-51,087
-50,452
-49,806
-49,15
-48,487
-47,817
-47,145
-46,471
-45,8
-45,133
-44,474
-43,826
-43,192
-42,573
-41,973
-41,393
-40,834
-40,298
-39,785
-39,298
-38,836
-38,401
-37,993
-37,615
-37,266
-36,948
-36,66
-36,401
-36,168
-35,961
-35,778
-35,615
-35,47
-35,337
-35,214
-35,099
-34,987
-34,873
-34,748
-34,602
-34,427
-34,218
-33,974
-33,692
-33,374
-33,023
-32,648
-32,265
-31,887
-31,523
-31,178
-30,853
-30,554
-30,29
-30,072
-29,913
-29,812
-29,764
-29,759
-29,783
-29,816
-29,824
-29,759
-29,564
-29,194
-28,621
-27,833
-26,825
-25,589
-24,116
-22,4
-20,449
-18,286
-15,949
-13,478
-10,925
-8,364
-5,889
-3,622
-1,687
-0,179
0,836
1,328
1,273
0,653
-0,558
-2,386
-4,82
-7,818
-11,317
-15,237
-19,495
-24,008
-28,641
-33,194
-37,532
-41,584
-45,413
-49,233
-53,126
-57,021
-60,825
-64,422
-67,673
-70,467
-72,454
-73,016
-71,914
-69,319
-65,654
-61,617
-57,8
-54,564
-52,525
-52,562
-55,07
-59,951
-66,66
-74,146
-81,558
-88,365
-93,84
-97,081
-97,473
-94,67
-88,707
-80,058
-69,074
-55,927
-40,947
-24,588
-7,248
10,731
29,103
47,749
66,605
85,659
105,079
125,215
146,256
168,144
190,857
214,373
238,26
261,729
283,53
301,908
315,378
322,913
323,386
315,704
299,517
275,168
243,839
207,654
168,725
128,942
90,581
56,091
27,242
5,096
-10,096
-19,027
-22,596
-21,741
-17,935
-13,024
-8,424
-5,07
-3,434
-3,407
-4,751
-7,222
-10,23
-12,942
-14,803
-15,538
-15,083
-13,655
-11,483
-8,739
-5,714
-2,761
-0,078
2,251
4,233
5,992
7,634
9,233
10,903
12,754
14,846
17,229
19,916
22,879
26,101
29,555
33,19
36,96
40,811
44,675
48,496
52,214
55,758
59,054
62,022
64,586
66,703
68,349
69,515
70,225
70,512
70,436
70,088
69,556
68,929
68,298
67,735
67,317
67,136
67,285
67,866
68,977
70,682
73,024
76,033
79,714
84,06
89,036
94,575
100,6
107,035
113,809
120,869
128,153
135,586
143,087
150,572
157,967
165,227
172,311
179,177
185,785
192,099
198,101
203,797
209,199
214,312
219,125
223,615
227,765
231,563
234,992
238,028
240,62
242,701
244,218
245,137
245,433
245,091
244,086
242,385
239,965
236,821
232,962
228,409
223,181
217,302
210,816
203,785
196,305
188,478
180,382
172,086
163,643
155,103
146,523
137,955
129,44
121,003
112,67
104,46
96,402
88,514
80,8
73,247
65,825
58,509
51,287
44,158
37,124
30,191
23,363
16,649
10,071
3,648
-2,6
-8,66
-14,523
-20,177
-25,605
-30,784
-35,69
-40,303
-44,613
-48,611
-52,295
-55,661
-58,713
-61,455
-63,901
-66,063
-67,951
-69,574
-70,94
-72,06
-72,946
-73,612
-74,071
-74,336
-74,42
-74,336
-74,098
-73,717
-73,205
-72,574
-71,832
-70,989
-70,057
-69,045
-67,965
-66,827
-65,64
-64,415
-63,16
-61,886
-60,599
-59,306
-58,014
-56,728
-55,454
-54,196
-52,959
-51,746
-50,561
-49,407
-48,287
-47,202
-46,155
-45,147
-44,179
-43,252
-42,367
-41,524
-40,724
-39,966
-39,252
-38,582
-37,956
-37,375
-36,839
-36,348
-35,903
-35,504
-35,151
-34,843
-34,582
-34,366
-34,197
-34,074
-33,998
-33,969
-33,988
-34,054
-34,169
-34,332
-34,545
-34,807
-35,119
-35,48
-35,893
-36,357
-36,873
-37,442
-38,064
-38,741
-39,471
-40,255
-41,094
-41,985
-42,93
-43,925
-44,97
-46,063
-47,203
-48,386
-49,611
-50,875
-52,175
-53,507
-54,87
-56,259
-57,67
-59,1
-60,545
-62
-63,462
-64,926
-66,387
-67,843
-69,287
-70,715
-72,122
-73,503
-74,854
-76,169
-77,443
-78,671
-79,848
-80,97
-82,031
-83,029
-83,96
-84,82
-85,607
-86,319
-86,952
-87,507
-87,982
-88,376
-88,689
-88,922
-89,075
-89,148
-89,145
-89,066
-88,913
-88,69
-88,399
-88,044
-87,627
-87,152
-86,624
-86,046
-85,422
-84,758
-84,059
-83,328
-82,572
-81,796
-81,005
-80,205
-79,4
-78,595
-77,795
-77,003
-76,224
-75,462
-74,719
-73,998
-73,301
-72,631
-71,989
-71,376
-70,793
-70,24
-69,716
-69,222
-68,756
-68,317
-67,904
-67,515
-67,148
-66,801
-66,471
-66,156
-65,853
-65,559
-65,271
-64,985
-64,698
-64,407
-64,107
-63,796
-63,47
-63,125
-62,76
-62,372
-61,958
-61,516
-61,046
-60,545
-60,013
-59,448
-58,852
-58,224
-57,563
-56,872
-56,151
-55,402
-54,626
-53,825
-53,001
-52,157
-51,295
-50,419
-49,53
-48,632
-47,727
-46,82
-45,912
-45,008
-44,111
-43,223
-42,347
-41,486
-40,642
-39,818
-39,014
-38,231
-37,471
-36,734
-36,02
-35,329
-34,661
-34,016
-33,394
-32,794
-32,215
-31,657
-31,116
-30,591
-30,079
-29,577
-29,08
-28,584
-28,085
-27,578
-27,06
-26,526
-25,972
-25,391
-24,776
-24,124
-23,434
-22,706
-21,941
-21,143
-20,318
-19,478
-18,639
-17,813
-17,011
-16,241
-15,509
-14,824
-14,197
-13,632
-13,137
-12,713
-12,352
-12,048
-11,792
-11,565
-11,346
-11,098
-10,783
-10,376
-9,861
-9,228
-8,477
-7,598
-6,589
-5,464
-4,237
-2,931
-1,576
-0,193
1,19
2,527
3,761
4,82
5,624
6,116
6,267
6,08
5,555
4,679
3,454
1,879
-0,013
-2,128
-4,471
-7,142
-10,211
-13,756
-17,729
-21,879
-26,087
-30,41
-34,721
-38,8
-42,403
-45,126
-46,973
-48,442
-49,787
-51,052
-52,424
-54,042
-56,175
-59,375
-63,6
-68,188
-72,701
-76,796
-80,105
-82,417
-83,316
-82,119
-78,614
-73,022
-65,424
-55,95
-44,751
-31,913
-17,784
-2,872
12,555
28,363
44,3
60,221
76,157
92,278
109,088
127,143
146,669
167,755
190,531
214,768
239,679
264,009
285,854
303,066
313,988
317,158
311,11
295,15
269,557
235,392
194,833
150,783
105,878
62,876
24,801
-6,211
-28,98
-43,024
-49,013
-48,431
-42,765
-33,94
-24,328
-15,603
-8,818
-4,653
-3,069
-3,643
-5,958
-9,244
-12,45
-14,973
-16,55
-17,096
-16,844
-16,057
-14,916
-13,744
-12,933
-12,674
-13,03
-13,963
-15,305
-16,923
-18,73
-20,605
-22,42
-24,073
-25,465
-26,526
-27,233
-27,567
-27,509
-27,048
-26,175
-24,891
-23,218
-21,187
-18,82
-16,136
-13,148
-9,871
-6,324
-2,542
1,443
5,599
9,902
14,338
18,886
23,518
28,205
32,927
37,67
42,429
47,185
51,898
56,533
61,06
65,454
69,706
73,808
77,744
81,505
85,093
88,524
91,84
95,088
98,297
101,497
104,712
107,974
111,344
114,876
118,605
122,568
126,792
131,306
136,16
141,387
146,989
152,951
159,224
165,738
172,441
179,283
186,203
193,139
200,006
206,725
213,238
219,483
225,385
230,854
235,767
240,003
243,476
246,112
247,858
248,697
248,599
247,536
245,504
242,497
238,514
233,554
227,594
220,61
212,615
203,654
193,813
183,204
171,926
160,082
147,778
135,1
122,139
108,994
95,741
82,462
69,258
56,235
43,525
31,284
19,627
8,633
-1,647
-11,204
-20,03
-28,128
-35,524
-42,243
-48,31
-53,763
-58,627
-62,927
-66,717
-70,064
-73,06
-75,827
-78,463
-81,035
-83,6
-86,185
-88,811
-91,494
-94,228
-96,996
-99,785
-102,578
-105,368
-108,15
-110,903
-113,596
-116,186
-118,608
-120,818
-122,783
-124,48
-125,896
-127,026
-127,866
-128,426
-128,726
-128,785
-128,617
-128,235
-127,646
-126,863
-125,907
-124,799
-123,566
-122,23
-120,805
-119,304
-117,737
-116,113
-114,438
-112,713
-110,936
-109,104
-107,221
-105,288
-103,31
-101,29
-99,228
-97,127
-94,989
-92,815
-90,61
-88,376
-86,119
-83,841
-81,549
-79,248
-76,946
-74,649
-72,364
-70,094
-67,847
-65,628
-63,444
-61,3
-59,204
-57,16
-55,177
-53,262
-51,421
-49,662
-47,989
-46,407
-44,922
-43,536
-42,252
-41,075
-40,005
-39,044
-38,196
-37,463
-36,849
-36,358
-35,99
-35,742
-35,613
-35,601
-35,701
-35,911
-36,223
-36,628
-37,125
-37,709
-38,379
-39,136
-39,97
-40,873
-41,835
-42,84
-43,884
-44,967
-46,084
-47,23
-48,409
-49,62
-50,878
-52,204
-53,596
-55,052
-56,566
-58,119
-59,707
-61,327
-62,97
-64,629
-66,287
-67,913
-69,489
-71,003
-72,426
-73,738
-74,895
-75,838
-76,545
-77,001
-77,202
-77,165
-76,897
-76,404
-75,712
-74,852
-73,868
-72,823
-71,762
-70,715
-69,732
-68,851
-68,134
-67,665
-67,488
-67,631
-68,117
-68,941
-70,104
-71,61
-73,434
-75,535
-77,865
-80,352
-82,946
-85,612
-88,305
-90,989
-93,612
-96,105
-98,425
-100,541
-102,429
-104,09
-105,51
-106,658
-107,531
-108,14
-108,51
-108,711
-108,775
-108,683
-108,47
-108,212
-107,978
-107,85
-107,856
-107,922
-108,025
-108,246
-108,511
-108,518
-108,16
-107,504
-106,485
-105,371
-103,652
-99,459
-93,019
-86,126
-81,458
-84,305
-94,828
-107,608
-117,406
-116,758
-104,557
-88,039
-72,873
-64,987
-65,976
-70,529
-75,214
-77,865
-77,591
-76,535
-75,767
-75,16
-74,781
-74,277
-73,507
-72,738
-72,016
-71,23
-70,305
-69,149
-67,682
-65,84
-63,561
-60,8
-57,554
-53,88
-49,865
-45,576
-41,085
-36,475
-31,819
-27,196
-22,715
-18,47
-14,564
-11,123
-8,231
-5,954
-4,347
-3,426
-3,19
-3,615
-4,629
-6,154
-8,108
-10,395
-12,93
-15,626
-18,37
-21,076
-23,672
-26,076
-28,254
-30,185
-31,845
-33,239
-34,385
-35,306
-36,057
-36,712
-37,34
-38,023
-38,836
-39,837
-41,091
-42,615
-44,391
-46,388
-48,532
-50,732
-52,891
-54,877
-56,538
-57,733
-58,307
-58,08
-56,856
-54,378
-50,439
-44,941
-37,879
-29,392
-19,633
-8,671
3,361
16,208
29,702
43,824
58,781
75,154
93,418
113,585
135,52
159,046
183,804
209,245
234,323
257,227
276,171
290,03
297,967
299,347
293,666
280,479
260,106
233,999
203,95
171,43
137,886
104,739
73,651
46,658
25,108
9,272
-1,07
-6,253
-6,826
-3,472
2,64
9,7
16,347
21,928
26,123
28,888
30,307
30,476
29,832
29,239
29,264
30,108
31,786
34,061
36,712
39,624
42,56
45,18
47,296
48,848
49,881
50,591
51,131
51,592
52,087
52,709
53,532
54,632
56,052
57,8
59,884
62,304
65,058
68,151
71,562
75,239
79,101
83,04
86,96
90,785
94,452
97,904
101,09
103,974
106,548
108,831
110,851
112,626
114,174
115,512
116,678
117,734
118,763
119,863
121,122
122,632
124,472
126,715
129,429
132,642
136,356
140,546
145,186
150,26
155,75
161,629
167,853
174,367
181,104
187,994
194,965
201,93
208,816
215,561
222,117
228,476
234,641
240,623
246,431
252,065
257,522
262,804
267,919
272,872
277,669
282,317
286,814
291,163
295,34
299,301
302,978
306,268
309,067
311,27
312,779
313,507
313,378
312,324
310,28
307,19
302,994
297,639
291,098
283,363
274,464
264,46
253,441
241,527
228,853
215,567
201,814
187,734
173,454
159,098
144,793
130,673
116,887
103,577
90,858
78,819
67,519
56,994
47,261
38,309
30,109
22,608
15,753
9,497
3,798
-1,386
-6,112
-10,457
-14,515
-18,372
-22,098
-25,744
-29,345
-32,931
-36,52
-40,118
-43,71
-47,271
-50,777
-54,212
-57,564
-60,819
-63,95
-66,922
-69,684
-72,198
-74,441
-76,394
-78,049
-79,401
-80,449
-81,201
-81,678
-81,906
-81,906
-81,697
-81,293
-80,715
-79,988
-79,14
-78,204
-77,204
-76,162
-75,093
-74,014
-72,939
-71,879
-70,84
-69,824
-68,832
-67,868
-66,936
-66,042
-65,187
-64,37
-63,591
-62,847
-62,143
-61,481
-60,861
-60,286
-59,754
-59,265
-58,821
-58,42
-58,062
-57,749
-57,482
-57,252
-57,053
-56,884
-56,741
-56,633
-56,573
-56,545
-56,525
-56,55
-56,659
-56,887
-57,285
-57,831
-58,458
-59,191
-60,084
-61,005
-61,819
-62,606
-63,283
-63,844
-64,732
-65,113
-64,217
-63,318
-62,598
-64,33
-71,394
-80,561
-89,548
-95,023
-92,346
-85,264
-77,422
-71,251
-70,416
-72,56
-75,281
-78,325
-80,688
-83,34
-86,91
-90,829
-95,046
-99,244
-103,091
-106,496
-109,071
-110,71
-111,798
-112,605
-113,341
-114,138
-114,939
-115,801
-116,945
-118,422
-120,098
-121,863
-123,6
-125,265
-126,935
-128,63
-130,305
-131,945
-133,542
-135,104
-136,656
-138,208
-139,741
-141,235
-142,669
-144,015
-145,263
-146,409
-147,461
-148,431
-149,309
-150,085
-150,747
-151,328
-151,933
-152,598
-153,244
-153,698
-153,76
-153,368
-152,696
-151,917
-151,012
-150,068
-149,348
-149,404
-151,009
-154,507
-159,529
-165,429
-171,73
-177,96
-183,573
-187,632
-188,758
-186,131
-179,983
-171,445
-161,645
-151,392
-141,604
-132,388
-124,38
-119,658
-118,459
-122,126
-132,07
-144,414
-156,719
-165,399
-165,455
-159,93
-151,812
-143,697
-139,953
-138,656
-137,492
-136,089
-133,148
-129,768
-127,216
-125,162
-123,427
-121,747
-119,85
-117,905
-116,1
-114,418
-112,828
-111,359
-110,057
-108,949
-108,042
-107,307
-106,671
-106,111
-105,613
-105,152
-104,724
-104,317
-103,911
-103,485
-103,014
-102,466
-101,821
-101,07
-100,206
-99,223
-98,121
-96,904
-95,601
-94,266
-92,961
-91,746
-90,667
-89,759
-89,048
-88,571
-88,39
-88,566
-89,16
-90,217
-91,725
-93,68
-96,096
-98,917
-102,026
-105,212
-108,094
-110,313
-111,689
-112,077
-111,393
-109,7
-106,973
-103,34
-99,326
-95,425
-91,869
-88,687
-85,46
-81,456
-76,224
-69,125
-59,047
-44,911
-25,787
-1,315
27,808
60,304
95,011
130,409
164,608
195,575
221,053
239,588
250,909
255,277
253,165
245,35
232,654
216,167
197,367
177,05
155,47
132,808
109,07
84,452
59,581
35,083
11,616
-9,725
-27,987
