Name,Yannick Börner
Date of Birth,"29. Sep 1994"
Recorded Date,2020-01-29 23:33:02 +0100
Classification,Sinus Rhythm
Symptoms,
Software Version,1.51
Device,"Watch4,2"
Sample Rate,513,578 hertz


Lead,Lead I
Unit,µV

-57,04
-62,105
-67,196
-72,238
-77,173
-81,954
-86,535
-90,856
-94,835
-98,37
-101,38
-103,812
-105,636
-106,842
-107,422
-107,386
-106,769
-105,634
-104,071
-102,154
-99,938
-97,463
-94,768
-91,908
-88,954
-85,992
-83,084
-80,28
-77,619
-75,132
-72,848
-70,785
-68,934
-67,266
-65,735
-64,311
-62,984
-61,756
-60,631
-59,606
-58,673
-57,826
-57,069
-56,412
-55,862
-55,427
-55,11
-54,926
-54,899
-55,064
-55,457
-56,107
-57,03
-58,239
-59,74
-61,541
-63,645
-66,05
-68,746
-71,725
-74,979
-78,501
-82,283
-86,313
-90,576
-95,051
-99,72
-104,561
-109,555
-114,684
-119,927
-125,264
-130,675
-136,143
-141,648
-147,174
-152,699
-158,202
-163,662
-169,058
-174,37
-179,576
-184,658
-189,595
-194,369
-198,964
-203,363
-207,553
-211,52
-215,252
-218,738
-221,97
-224,94
-227,641
-230,069
-232,22
-234,093
-235,686
-237
-238,038
-238,803
-239,298
-239,531
-239,507
-239,234
-238,721
-237,977
-237,014
-235,841
-234,473
-232,921
-231,199
-229,321
-227,302
-225,157
-222,901
-220,55
-218,117
-215,618
-213,068
-210,48
-207,869
-205,247
-202,627
-200,02
-197,437
-194,889
-192,385
-189,935
-187,545
-185,223
-182,975
-180,807
-178,722
-176,726
-174,821
-173,008
-171,29
-169,666
-168,137
-166,7
-165,355
-164,1
-162,93
-161,842
-160,832
-159,896
-159,028
-158,222
-157,473
-156,774
-156,12
-155,505
-154,921
-154,363
-153,826
-153,303
-152,789
-152,279
-151,767
-151,249
-150,721
-150,179
-149,618
-149,037
-148,431
-147,798
-147,137
-146,446
-145,724
-144,971
-144,187
-143,372
-142,527
-141,653
-140,753
-139,829
-138,882
-137,917
-136,936
-135,942
-134,94
-133,933
-132,925
-131,92
-130,922
-129,935
-128,963
-128,01
-127,078
-126,17
-125,29
-124,441
-123,623
-122,841
-122,094
-121,385
-120,714
-120,082
-119,487
-118,93
-118,408
-117,919
-117,46
-117,027
-116,616
-116,222
-115,839
-115,461
-115,081
-114,692
-114,285
-113,852
-113,385
-112,875
-112,311
-111,685
-110,986
-110,205
-109,332
-108,357
-107,27
-106,063
-104,726
-103,25
-101,627
-99,849
-97,907
-95,795
-93,507
-91,037
-88,38
-85,533
-82,494
-79,261
-75,835
-72,217
-68,412
-64,424
-60,26
-55,927
-51,433
-46,788
-42,003
-37,091
-32,061
-26,928
-21,703
-16,404
-11,044
-5,644
-0,219
5,212
10,629
16,013
21,345
26,605
31,773
36,832
41,763
46,546
51,16
55,579
59,783
63,756
67,486
70,968
74,199
77,182
79,925
82,449
84,773
86,916
88,895
90,72
92,406
93,974
95,449
96,863
98,247
99,617
100,98
102,333
103,66
104,938
106,128
107,163
107,976
108,508
108,71
108,556
108,018
107,066
105,654
103,738
101,285
98,286
94,765
90,767
86,367
81,664
76,791
71,927
67,275
63,035
59,389
56,496
54,506
53,583
53,925
55,719
59,132
64,294
71,273
80,102
90,771
103,211
117,296
132,831
149,574
167,27
185,647
204,412
223,254
241,801
259,639
276,394
291,658
305,016
316,188
324,956
331,254
335,24
336,945
336,258
333,124
327,489
319,264
308,445
294,741
277,568
256,912
233,296
207,556
180,89
154,363
128,777
105,348
85,648
70,59
60,441
54,823
52,632
53,021
55,524
59,357
63,484
67,197
70,071
72,192
74,257
76,665
79,43
82,608
86,225
90,236
94,615
99,128
103,281
106,775
109,503
111,424
112,64
113,245
113,288
112,876
112,156
111,227
110,189
109,13
108,099
107,176
106,429
105,897
105,618
105,601
105,805
106,166
106,579
106,92
107,089
107,004
106,594
105,835
104,711
103,216
101,367
99,148
96,532
93,521
90,137
86,449
82,585
78,713
74,996
71,643
68,889
66,852
65,563
64,918
64,627
64,408
64,106
63,633
62,93
62,269
62,082
62,877
65,473
70,463
78,008
88,072
100,245
113,3
125,649
135,646
141,206
140,733
133,27
117,977
94,837
65,164
30,92
-5,607
-41,567
-74,735
-103,424
-125,78
-140,832
-148,877
-150,831
-148,191
-142,955
-136,47
-129,723
-123,958
-119,835
-117,379
-116,357
-116,035
-115,435
-114,124
-111,92
-108,578
-104,156
-98,806
-92,69
-86,244
-79,959
-74,076
-68,747
-64,086
-60,115
-56,924
-54,627
-53,239
-52,768
-53,234
-54,639
-56,991
-60,296
-64,532
-69,686
-75,764
-82,776
-90,752
-99,715
-109,653
-120,527
-132,253
-144,715
-157,796
-171,361
-185,26
-199,363
-213,555
-227,735
-241,811
-255,684
-269,227
-282,3
-294,763
-306,471
-317,32
-327,237
-336,178
-344,136
-351,125
-357,18
-362,372
-366,772
-370,441
-373,436
-375,815
-377,639
-379,006
-380,032
-380,825
-381,494
-382,133
-382,804
-383,57
-384,472
-385,528
-386,741
-388,096
-389,567
-391,136
-392,795
-394,523
-396,304
-398,098
-399,853
-401,534
-403,106
-404,547
-405,846
-406,999
-408,001
-408,867
-409,617
-410,275
-410,871
-411,429
-411,967
-412,51
-413,08
-413,71
-414,437
-415,295
-416,308
-417,498
-418,878
-420,457
-422,246
-424,253
-426,483
-428,94
-431,631
-434,565
-437,766
-441,261
-445,074
-449,219
-453,701
-458,514
-463,659
-469,137
-474,945
-481,081
-487,528
-494,27
-501,298
-508,611
-516,2
-524,042
-532,092
-540,283
-548,557
-556,872
-565,197
-573,504
-581,763
-589,953
-598,061
-606,098
-614,088
-622,044
-629,961
-637,812
-645,583
-653,281
-660,939
-668,61
-676,337
-684,144
-692,062
-700,135
-708,402
-716,891
-725,605
-734,512
-743,573
-752,774
-762,116
-771,62
-781,295
-791,126
-801,085
-811,136
-821,247
-831,402
-841,557
-851,632
-861,543
-871,204
-880,554
-889,57
-898,211
-906,405
-914,057
-921,035
-927,238
-932,622
-937,026
-940,187
-941,76
-941,259
-938,307
-932,7
-924,136
-912,273
-897,049
-878,682
-857,763
-835,396
-812,571
-789,983
-768,567
-749,251
-732,472
-718,449
-706,946
-696,694
-686,485
-674,334
-656,533
-630,57
-595,828
-555,181
-515,978
-484,572
-462,648
-445,621
-423,536
-386,459
-328,531
-260,715
-216,009
-200,523
-202,254
-307,075
-605,563
-997,458
-1353,406
-1674,589
-1950,882
-2140,301
-2248,723
-2293,917
-2294,358
-2272,448
-2233,166
-2185,664
-2146,446
-2119,7
-2109,131
-2109,513
-2100,969
-2073,357
-2024,586
-1959,158
-1890,81
-1827,047
-1768,726
-1714,553
-1660,663
-1606
-1551,876
-1498,682
-1446,678
-1395,471
-1344,018
-1292,122
-1239,871
-1187,085
-1133,846
-1080,572
-1027,782
-976,298
-927,101
-880,593
-836,821
-795,799
-757,298
-721,036
-686,767
-654,014
-622,174
-590,883
-559,929
-529,204
-498,766
-468,617
-438,701
-409,052
-379,72
-350,749
-322,188
-294,036
-266,246
-238,806
-211,718
-184,999
-158,716
-132,909
-107,595
-82,78
-58,43
-34,53
-11,068
11,987
34,682
57,064
79,164
100,965
122,398
143,394
163,874
183,762
203,013
221,571
239,379
256,38
272,504
287,692
301,876
314,964
326,833
337,356
346,443
354,063
360,252
365,077
368,635
371,044
372,428
372,933
372,703
371,88
370,621
369,084
367,458
365,97
364,888
364,496
365,058
366,782
369,826
374,306
380,294
387,839
396,964
407,654
419,898
433,661
448,876
465,463
483,297
502,206
521,977
542,363
563,104
583,968
604,752
625,266
645,352
664,847
683,596
701,472
718,347
734,119
748,722
762,105
774,244
785,158
794,89
803,514
811,136
817,841
823,7
828,798
833,208
837,028
840,378
843,364
846,092
848,664
851,155
853,635
856,164
858,768
861,462
864,248
867,108
870,045
873,067
876,162
879,312
882,474
885,567
888,516
891,238
893,619
895,558
896,955
897,717
897,791
897,142
895,728
893,516
890,463
886,538
881,744
876,117
869,72
862,667
855,091
847,156
839,102
831,198
823,712
816,916
811,021
806,21
802,711
800,786
800,703
802,698
806,923
813,433
822,271
833,485
847,011
862,629
879,908
898,315
917,436
937,048
956,97
976,852
996,339
1015,171
1033,326
1051,006
1068,143
1084,226
1098,596
1110,833
1120,56
1127,285
1130,26
1128,282
1120,456
1106,635
1087,002
1061,766
1031,357
996,581
958,761
920,12
882,986
849,002
819,493
795,507
777,658
766,128
760,49
759,289
760,574
762,776
764,524
764,772
762,882
758,42
751,292
742,037
731,602
720,731
710,001
699,73
689,942
680,632
671,735
662,997
654,055
644,691
634,838
624,578
614,152
603,794
593,704
584,088
575,127
566,922
559,518
552,919
547,089
542,002
537,629
533,924
530,828
528,259
526,102
524,196
522,367
520,429
518,221
515,632
512,596
509,083
505,099
500,675
495,83
490,61
485,111
479,438
473,735
468,168
462,855
457,983
453,819
450,531
448,207
446,813
446,053
445,681
445,723
446,181
447,094
448,727
451,236
454,998
460,944
469,784
481,685
496,524
513,527
531,454
549,453
566,255
580,048
589,184
592,073
588,005
576,892
559,564
537,577
512,519
489,049
468,855
455,592
463,813
467,639
421,354
383,143
425,915
480,855
479,385
466,006
474,518
489,072
501,586
506,628
494,372
464,812
426,25
396,16
398,078
434,103
473,109
490,935
523,526
565,924
422,233
-1,069
-596,831
-446,957
-481,533
-683,745
-841,215
-808,808
-683,161
-524,364
-331,04
-133,669
24,497
122,152
163,232
163,033
147,239
138,911
143,115
157,119
172,806
180,789
181,749
180,91
182,74
191,256
206,58
226,067
247,531
269,158
289,161
306,283
319,953
329,954
336,641
340,811
343,136
344,238
344,875
345,726
347,214
349,57
352,791
356,727
361,278
366,354
371,833
377,582
383,464
389,355
395,146
400,744
406,048
410,921
415,226
418,829
421,605
423,47
424,38
424,307
423,243
421,201
418,203
414,293
409,534
403,99
397,725
390,808
383,3
375,273
366,804
357,968
348,838
339,473
329,917
320,211
310,39
300,484
290,522
280,524
270,506
260,487
250,49
240,538
230,654
220,862
211,181
201,631
192,232
183,004
173,968
165,145
156,553
148,21
140,134
132,34
124,845
117,662
110,8
104,267
98,07
92,213
86,7
81,531
76,705
72,222
68,078
64,268
60,788
57,63
54,787
52,248
50,002
48,038
46,341
44,896
43,686
42,691
41,89
41,262
40,786
40,436
40,19
40,024
39,913
39,836
39,769
39,689
39,57
39,389
39,12
38,738
38,22
37,54
36,676
35,605
34,307
32,768
30,971
28,904
26,552
23,901
20,939
17,662
14,069
10,161
5,945
1,425
-3,382
-8,45
-13,755
-19,268
-24,968
-30,844
-36,882
-43,063
-49,369
-55,775
-62,268
-68,851
-75,523
-82,277
-89,111
-96,015
-102,996
-110,08
-117,285
-124,625
-132,094
-139,659
-147,297
-154,989
-162,711
-170,442
-178,131
-185,691
-193,05
-200,14
-206,894
-213,255
-219,138
-224,431
-229,043
-232,903
-235,966
-238,226
-239,665
-240,254
-239,98
-238,828
-236,834
-234,088
-230,668
-226,646
-222,11
-217,145
-211,871
-206,451
-201,015
-195,666
-190,489
-185,531
-180,861
-176,565
-172,717
-169,392
-166,622
-164,389
-162,684
-161,5
-160,806
-160,566
-160,707
-161,112
-161,7
-162,417
-163,219
-164,086
-164,981
-165,844
-166,627
-167,28
-167,77
-168,094
-168,238
-168,189
-167,951
-167,538
-166,99
-166,373
-165,729
-165,078
-164,432
-163,791
-163,163
-162,565
-162,007
-161,495
-161,034
-160,624
-160,267
-159,972
-159,733
-159,539
-159,368
-159,19
-158,981
-158,732
-158,435
-158,089
-157,692
-157,241
-156,739
-156,194
-155,61
-154,992
-154,34
-153,655
-152,94
-152,201
-151,449
-150,691
-149,937
-149,195
-148,469
-147,766
-147,089
-146,442
-145,826
-145,24
-144,684
-144,159
-143,667
-143,209
-142,786
-142,399
-142,049
-141,737
-141,462
-141,225
-141,023
-140,856
-140,722
-140,619
-140,545
-140,499
-140,478
-140,481
-140,507
-140,554
-140,621
-140,706
-140,808
-140,926
-141,058
-141,206
-141,366
-141,54
-141,728
-141,928
-142,143
-142,372
-142,615
-142,873
-143,145
-143,43
-143,729
-144,039
-144,358
-144,684
-145,017
-145,355
-145,697
-146,042
-146,389
-146,738
-147,091
-147,445
-147,799
-148,15
-148,495
-148,829
-149,147
-149,445
-149,717
-149,954
-150,151
-150,306
-150,415
-150,472
-150,471
-150,401
-150,256
-150,036
-149,742
-149,376
-148,944
-148,451
-147,909
-147,34
-146,764
-146,197
-145,648
-145,113
-144,592
-144,089
-143,606
-143,147
-142,708
-142,268
-141,813
-141,334
-140,818
-140,252
-139,606
-138,834
-137,901
-136,789
-135,495
-134,039
-132,437
-130,701
-128,851
-126,915
-124,932
-122,959
-121,034
-119,182
-117,434
-115,823
-114,401
-113,242
-112,398
-111,89
-111,726
-111,897
-112,398
-113,235
-114,408
-115,901
-117,692
-119,762
-122,115
-124,776
-127,764
-131,084
-134,721
-138,648
-142,858
-147,374
-152,214
-157,385
-162,868
-168,616
-174,562
-180,644
-186,783
-192,859
-198,716
-204,171
-209,025
-213,104
-216,255
-218,308
-219,063
-218,311
-215,853
-211,542
-205,292
-197,066
-186,88
-174,776
-160,835
-145,218
-128,129
-109,836
-90,677
-70,989
-51,128
-31,512
-12,563
5,243
21,374
35,454
47,251
56,633
63,688
68,467
70,783
70,531
67,674
61,94
53,121
40,9
24,542
3,724
-21,102
-49,246
-79,625
-110,675
-141,131
-169,636
-194,272
-213,711
-227,51
-235,644
-238,896
-238,654
-235,862
-231,474
-226,853
-222,887
-220,023
-218,502
-217,892
-217,403
-216,671
-215,458
-213,472
-210,74
-207,343
-203,364
-199,183
-195,256
-191,816
-188,999
-186,848
-185,25
-184,12
-183,387
-182,908
-182,549
-182,206
-181,776
-181,181
-180,361
-179,264
-177,85
-176,095
-173,978
-171,492
-168,649
-165,478
-162,025
-158,335
-154,448
-150,401
-146,225
-141,957
-137,638
-133,306
-128,999
-124,744
-120,56
-116,462
-112,46
-108,561
-104,764
-101,06
-97,435
-93,874
-90,368
-86,909
-83,489
-80,097
-76,718
-73,339
-69,946
-66,526
-63,068
-59,556
-55,975
-52,312
-48,553
-44,686
-40,702
-36,588
-32,33
-27,912
-23,319
-18,536
-13,56
-8,385
-3,011
2,556
8,309
14,229
20,294
26,483
32,778
39,163
45,626
52,15
58,718
65,313
71,915
78,51
85,094
91,663
98,221
104,783
111,366
117,994
124,708
131,525
138,457
145,506
152,654
159,886
167,171
174,467
181,734
188,924
195,97
202,81
209,366
215,532
221,219
226,326
230,728
234,332
237,046
238,785
239,504
239,17
237,774
235,335
231,871
227,404
221,984
215,655
208,486
200,575
191,994
182,827
173,194
163,206
152,987
142,677
132,369
122,137
112,042
102,12
92,41
82,96
73,79
64,927
56,389
48,178
40,332
32,883
25,82
19,129
12,765
6,659
0,781
-4,882
-10,344
-15,602
-20,656
-25,517
-30,171
-34,609
-38,828
-42,83
-46,646
-50,305
-53,809
-57,148
-60,293
-63,192
-65,822
-68,169
-70,213
-71,947
-73,368
-74,469
-75,265
-75,772
-75,998
-75,944
-75,601
-74,956
-74,013
-72,786
-71,294
-69,568
-67,628
-65,495
-63,194
-60,743
-58,16
-55,457
-52,64
-49,71
-46,673
-43,539
-40,318
-37,023
-33,662
-30,24
-26,764
-23,237
-19,662
-16,044
-12,384
-8,683
-4,945
-1,176
2,619
6,431
10,253
14,078
17,9
21,712
25,507
29,28
33,025
36,738
40,413
44,045
47,627
51,154
54,621
58,021
61,349
64,599
67,764
70,84
73,821
76,702
79,478
82,146
84,7
87,138
89,457
91,653
93,725
95,672
97,492
99,188
100,76
102,214
103,552
104,782
105,909
106,941
107,887
108,755
109,552
110,287
110,968
111,607
112,214
112,801
113,382
113,969
114,579
115,227
115,93
116,704
117,565
118,526
119,602
120,809
122,161
123,675
125,367
127,244
129,316
131,586
134,056
136,723
139,581
142,617
145,817
149,165
152,651
156,264
159,996
163,841
167,789
171,827
175,953
180,175
184,507
188,973
193,592
198,388
203,385
208,621
214,124
219,921
226,024
232,433
239,144
246,143
253,419
260,959
268,72
276,635
284,618
292,558
300,352
307,899
315,087
321,802
327,94
333,408
338,137
342,08
345,19
347,429
348,757
349,134
348,576
347,135
344,891
341,973
338,513
334,593
330,342
325,915
321,391
317,067
313,178
309,627
306,557
303,403
299,73
296,128
292,728
291,98
293,468
298,495
319,717
331,577
289,989
252,89
292,836
343,697
338,549
320,229
321,292
326,294
330,127
335,25
339,841
343,555
346,355
348,457
350,334
351,888
353,122
354,089
354,761
355,168
355,318
355,192
354,805
354,203
353,428
352,532
351,541
350,45
349,248
347,912
346,421
344,778
342,922
340,755
338,269
335,525
332,731
330,259
328,383
327,228
326,982
327,826
329,777
332,764
336,269
339,31
341,075
340,984
338,508
333,27
324,947
313,167
298,332
281,734
264,447
247,277
231,085
216,398
205,078
201,132
206,931
221,726
240,604
252,341
245,109
215,304
168,84
121,692
98,561
113,277
139,126
134,147
137,089
170,391
1,34
-581,63
-1606,765
-1739,95
-1919,973
-2064,933
-2183,891
-2182,346
-2062,836
-1880,545
-1665,564
-1438,901
-1241,596
-1104,997
-1037,451
-1036,151
-1072,536
-1109,61
-1123,773
-1101,333
-1049,243
-988,87
-938,849
-908,994
-897,181
-894,318
-889,216
-878,275
-866,084
-853,347
-840,388
-824,892
-799,078
-764,017
-727,536
-697,212
-682,875
-688,752
-709,699
-738,573
-766,194
-781,683
-780,202
-760,597
-727,257
-694,199
-672,701
-671,861
-692,702
-719,91
-741,056
-745,215
-726,995
-698,558
-668,944
-644,226
-629,995
-620,473
-611,352
-602,137
-591,394
-581,671
-575,215
-571,966
-570,415
-568,463
-566,375
-563,647
-562,487
-564,779
-566,029
-566,031
-563,41
-557,06
-552,249
-547,128
-538,467
-525,734
-528,688
-565,611
-582,937
-578,51
-735,755
-1168,32
-1631,157
-1766,263
-1591,291
-1433,48
-1403,841
-1330,46
-1143,284
-931,829
-742,757
-573,327
-439,761
-360,554
-339,385
-362,685
-405,667
-447,477
-470,025
-465,112
-438,901
-399,953
-360,764
-331,892
-313,27
-300,431
-286
-263,897
-234,221
-200,081
-165,189
-131,792
-100,23
-70,456
-42,355
-15,992
8,635
31,944
54,295
75,703
95,849
114,339
130,599
143,616
152,243
155,154
151,214
140,201
122,646
99,507
72,226
42,752
13,476
-12,594
-32,752
-45,527
-50,188
-46,676
-35,543
-17,597
5,363
30,335
54,738
77,013
95,984
111,083
122,044
128,39
130,78
131,116
130,762
130,476
130,851
131,973
134,047
137,731
142,851
148,438
153,923
158,939
163,302
167,228
170,675
173,289
175,106
176,465
177,618
178,832
180,193
181,552
182,875
184,202
185,505
186,721
187,73
188,387
188,635
188,486
187,98
187,176
186,096
184,728
183,074
181,126
178,896
176,41
173,677
170,714
167,554
164,237
160,84
157,438
154,07
150,757
147,492
144,243
141,006
137,786
134,583
131,412
128,283
125,21
122,219
119,343
116,6
114,003
111,55
109,236
107,075
105,091
103,318
101,807
100,592
99,702
99,166
99,003
99,222
99,822
100,788
102,09
103,702
105,608
107,791
110,249
112,968
115,932
119,117
122,491
126,027
129,704
133,502
137,409
141,426
145,562
149,848
154,336
159,068
164,08
169,392
174,994
180,869
186,99
193,321
199,829
206,478
213,219
219,995
226,742
233,378
239,814
245,936
251,593
256,633
260,902
264,27
266,652
267,984
268,228
267,367
265,384
262,265
258,012
252,641
246,166
238,618
230,022
220,417
209,9
198,601
186,673
174,266
161,494
148,448
135,21
121,851
108,449
95,094
81,866
68,839
56,114
43,8
32,037
20,981
10,728
1,327
-7,207
-14,879
-21,671
-27,558
-32,523
-36,56
-39,674
-41,887
-43,21
-43,659
-43,293
-42,193
-40,486
-38,333
-35,852
-33,121
-30,2
-27,124
-23,939
-20,693
-17,415
-14,12
-10,819
-7,524
-4,253
-1,033
2,141
5,292
8,47
11,745
15,166
18,753
22,521
26,47
30,596
34,896
39,348
43,918
48,576
53,297
58,063
62,863
67,676
72,469
77,209
81,853
86,369
90,736
94,933
98,947
102,768
106,39
109,815
113,055
116,115
119
121,715
124,261
126,641
128,863
130,935
132,865
134,659
136,326
137,873
139,309
140,641
141,875
143,018
144,073
145,047
145,946
146,775
147,541
148,251
148,911
149,526
150,102
150,644
151,157
151,644
152,108
152,551
152,975
153,381
153,768
154,138
154,49
154,823
155,137
155,43
155,7
155,947
156,168
156,361
156,524
156,654
156,748
156,804
156,82
156,792
156,718
156,597
156,426
156,203
155,927
155,596
155,209
154,766
154,265
153,707
153,092
152,421
151,697
150,921
150,095
149,223
148,307
147,351
146,359
145,334
144,28
143,203
142,105
140,992
139,869
138,74
137,611
136,485
135,368
134,265
133,179
132,114
131,075
130,066
129,088
128,147
127,243
126,381
125,562
124,787
124,057
123,374
122,736
122,143
121,594
121,087
120,621
120,192
119,799
119,437
119,105
118,799
118,515
118,249
117,997
117,756
117,522
117,289
117,055
116,816
116,568
116,307
116,03
115,734
115,416
115,074
114,705
114,307
113,877
113,414
112,917
112,385
111,816
111,212
110,572
109,898
109,191
108,451
107,682
106,885
106,062
105,217
104,351
103,467
102,567
101,656
100,736
99,809
98,878
97,947
97,018
96,092
95,173
94,262
93,361
92,471
91,593
90,729
89,88
89,047
88,23
87,431
86,649
85,885
85,138
84,409
83,696
82,998
82,315
81,645
80,986
80,336
79,695
79,061
78,431
77,804
77,179
76,552
75,922
75,286
74,644
73,991
73,327
72,65
71,958
71,25
70,523
69,779
69,014
68,23
67,424
66,596
65,744
64,868
63,967
63,039
62,085
61,104
60,095
59,058
57,993
56,901
55,781
54,634
53,458
52,255
51,025
49,768
48,486
47,178
45,848
44,497
43,129
41,745
40,349
38,944
37,535
36,125
34,717
33,315
31,921
30,538
29,17
27,82
26,492
25,189
23,916
22,68
21,488
20,347
19,262
18,239
17,283
16,399
15,592
14,868
14,227
13,672
13,208
12,841
12,583
12,437
12,401
12,469
12,627
12,864
13,174
13,54
13,944
14,374
14,823
15,297
15,812
16,374
16,98
17,621
18,274
18,928
19,586
20,248
20,919
21,609
22,318
23,068
23,893
24,8
25,777
26,783
27,75
28,634
29,409
30,056
30,574
30,952
31,178
31,254
31,188
30,973
30,6
30,031
29,21
28,124
26,798
25,29
23,692
22,063
20,432
18,83
17,266
15,752
14,276
12,774
11,176
9,438
7,552
5,571
3,537
1,425
-0,84
-3,377
-6,288
-9,581
-13,257
-17,362
-21,854
-26,646
-31,486
-35,864
-39,42
-42,038
-43,665
-44,35
-44,226
-43,287
-41,77
-40,388
-39,453
-38,888
-38,508
-37,665
-35,589
-31,82
-25,518
-15,229
-0,179
19,901
45,091
74,463
106,718
140,776
174,853
206,4
233,631
255,177
269,847
277,737
279,339
274,942
265,603
252,985
237,998
221,291
203,411
183,867
162,211
138,546
112,774
84,855
55,646
26,381
-1,623
-26,438
-46,529
-61,125
-69,779
-72,599
-70,576
-65,163
-57,801
-50,116
-43,378
-38,284
-35,237
-34,221
-34,698
-35,857
-37,069
-37,826
-37,837
-37,108
-35,706
-33,79
-31,699
-29,833
-28,435
-27,615
-27,36
-27,523
-27,985
-28,65
-29,384
-30,059
-30,563
-30,795
-30,708
-30,302
-29,571
-28,511
-27,118
-25,386
-23,336
-21,016
-18,474
-15,755
-12,902
-9,949
-6,943
-3,933
-0,966
1,917
4,689
7,336
9,845
12,211
14,44
16,545
18,55
20,478
22,343
24,146
25,894
27,59
29,244
30,867
32,459
34,013
35,527
37,004
38,442
39,834
41,151
42,347
43,388
44,259
44,97
45,549
46,022
46,421
46,789
47,184
47,684
48,359
49,262
50,433
51,911
53,751
56,027
58,825
62,207
66,204
70,819
76,039
81,843
88,184
94,996
102,185
109,636
117,257
124,978
132,741
140,488
148,145
155,628
162,858
169,782
176,357
182,561
188,377
193,795
198,842
203,551
207,974
212,175
216,177
219,982
223,586
226,978
230,146
233,083
235,752
238,09
240,048
241,565
242,579
243,031
242,826
241,873
240,092
237,393
233,724
229,06
223,376
216,665
208,939
200,205
190,514
179,954
168,595
156,528
143,854
130,67
117,105
103,296
89,367
75,458
61,703
48,207
35,079
22,418
10,301
-1,176
-11,952
-22,005
-31,307
-39,848
-47,637
-54,677
-60,991
-66,632
-71,645
-76,098
-80,074
-83,632
-86,829
-89,727
-92,372
-94,831
-97,158
-99,377
-101,512
-103,576
-105,575
-107,521
-109,421
-111,254
-113,001
-114,63
-116,097
-117,378
-118,458
-119,319
-119,95
-120,337
-120,468
-120,349
-119,995
-119,42
-118,641
-117,671
-116,524
-115,228
-113,815
-112,318
-110,775
-109,214
-107,657
-106,127
-104,641
-103,215
-101,863
-100,591
-99,401
-98,294
-97,274
-96,343
-95,505
-94,759
-94,099
-93,523
-93,026
-92,603
-92,253
-91,971
-91,753
-91,598
-91,503
-91,467
-91,488
-91,564
-91,692
-91,867
-92,085
-92,34
-92,629
-92,947
-93,286
-93,644
-94,014
-94,394
-94,78
-95,169
-95,557
-95,942
-96,323
-96,696
-97,062
-97,419
-97,766
-98,105
-98,435
-98,757
-99,071
-99,38
-99,683
-99,983
-100,28
-100,576
-100,871
-101,168
-101,467
-101,77
-102,079
-102,396
-102,723
-103,062
-103,415
-103,785
-104,173
-104,582
-105,014
-105,469
-105,949
-106,456
-106,99
-107,552
-108,141
-108,76
-109,406
-110,079
-110,779
-111,505
-112,255
-113,027
-113,82
-114,632
-115,46
-116,302
-117,156
-118,021
-118,892
-119,768
-120,646
-121,524
-122,398
-123,265
-124,123
-124,968
-125,797
-126,606
-127,393
-128,154
-128,887
-129,587
-130,253
-130,881
-131,469
-132,013
-132,512
-132,962
-133,362
-133,71
-134,004
-134,242
-134,424
-134,547
-134,612
-134,618
-134,564
-134,45
-134,275
-134,04
-133,745
-133,391
-132,977
-132,506
-131,977
-131,394
-130,756
-130,066
-129,325
-128,537
-127,702
-126,824
-125,904
-124,946
-123,953
-122,927
-121,872
-120,79
-119,685
-118,561
-117,42
-116,266
-115,103
-113,933
-112,76
-111,587
-110,418
-109,256
-108,104
-106,964
-105,841
-104,736
-103,654
-102,595
-101,564
-100,562
-99,592
-98,656
-97,755
-96,892
-96,068
-95,285
-94,544
-93,847
-93,193
-92,585
-92,022
-91,505
-91,034
-90,61
-90,232
-89,9
-89,613
-89,371
-89,174
-89,019
-88,908
-88,837
-88,807
-88,815
-88,86
-88,941
-89,056
-89,203
-89,379
-89,584
-89,814
-90,068
-90,342
-90,634
-90,941
-91,259
-91,586
-91,919
-92,252
-92,585
-92,912
-93,23
-93,535
-93,823
-94,092
-94,335
-94,55
-94,733
-94,879
-94,984
-95,045
-95,058
-95,018
-94,922
-94,767
-94,549
-94,265
-93,912
-93,485
-92,984
-92,406
-91,748
-91,009
-90,188
-89,287
-88,306
-87,248
-86,115
-84,911
-83,638
-82,3
-80,901
-79,445
-77,935
-76,373
-74,766
-73,12
-71,443
-69,743
-68,028
-66,304
-64,58
-62,864
-61,166
-59,497
-57,861
-56,267
-54,724
-53,247
-51,856
-50,569
-49,393
-48,331
-47,383
-46,546
-45,815
-45,182
-44,625
-44,12
-43,643
-43,172
-42,695
-42,199
-41,661
-41,047
-40,319
-39,443
-38,416
-37,25
-35,962
-34,586
-33,148
-31,692
-30,295
-29,026
-27,968
-27,221
-26,846
-26,903
-27,465
-28,567
-30,286
-32,745
-35,884
-39,504
-43,415
-47,347
-51,192
-55,064
-58,818
-62,096
-64,826
-67,087
-69,022
-70,975
-72,704
-73,318
-72,295
-69,444
-64,409
-56,895
-46,457
-32,313
-14,55
5,798
27,926
51,162
74,776
98,279
120,935
141,583
159,721
175,456
188,698
199,505
207,989
213,999
217,638
219,121
218,187
214,606
208,514
199,815
188,393
174,276
157,236
137,604
116,484
94,682
72,673
51,149
30,734
12,189
-3,314
-15,465
-24,904
-32,01
-37,059
-40,405
-42,2
-42,878
-43,321
-43,807
-44,01
-43,793
-43,017
-41,638
-39,899
-37,866
-35,409
-32,649
-29,887
-27,327
-25,164
-23,481
-22,186
-21,231
-20,581
-20,113
-19,678
-19,149
-18,419
-17,434
-16,167
-14,574
-12,595
-10,21
-7,435
-4,308
-0,866
2,862
6,842
11,01
15,254
19,445
23,476
27,27
30,783
33,984
36,836
39,317
41,425
43,196
44,697
45,987
47,105
48,081
48,945
49,75
50,571
51,493
52,576
53,863
55,382
57,156
59,211
61,553
64,171
67,024
70,061
73,243
76,554
79,984
83,53
87,179
90,914
94,719
98,588
102,524
106,531
110,615
114,782
119,043
123,416
127,924
132,595
137,439
142,458
147,636
152,952
158,382
163,909
169,517
175,187
180,9
186,634
192,362
198,059
203,713
209,313
214,853
220,326
225,741
231,117
236,495
241,927
247,449
253,082
258,829
264,681
270,627
276,653
282,743
288,871
294,989
301,038
306,957
312,675
318,106
323,146
327,655
331,487
334,522
336,663
337,837
337,996
337,091
335,088
331,964
327,709
322,331
315,857
308,311
299,741
290,214
279,811
268,66
256,901
244,649
232,022
219,122
206,039
192,866
179,695
166,609
153,698
141,06
128,769
116,905
105,533
94,701
84,463
74,838
65,826
57,438
49,668
42,508
35,959
30,012
24,641
19,821
15,501
11,612
8,103
4,92
2,017
-0,648
-3,132
-5,476
-7,705
-9,84
-11,894
-13,875
-15,8
-17,68
-19,507
-21,273
-22,951
-24,499
-25,896
-27,124
-28,169
-29,023
-29,668
-30,095
-30,307
-30,318
-30,142
-29,794
-29,286
-28,628
-27,845
-26,963
-26,011
-25,026
-24,032
-23,051
-22,1
-21,195
-20,349
-19,574
-18,873
-18,245
-17,688
-17,203
-16,79
-16,451
-16,182
-15,978
-15,834
-15,744
-15,705
-15,712
-15,761
-15,849
-15,973
-16,131
-16,321
-16,543
-16,796
-17,075
-17,379
-17,703
-18,045
-18,4
-18,765
-19,138
-19,515
-19,893
-20,272
-20,65
-21,027
-21,401
-21,773
-22,143
-22,512
-22,881
-23,251
-23,624
-24,001
-24,384
-24,775
-25,175
-25,586
-26,009
-26,446
-26,897
-27,363
-27,846
-28,345
-28,862
-29,398
-29,952
-30,525
-31,119
-31,733
-32,368
-33,025
-33,702
-34,401
-35,121
-35,861
-36,62
-37,398
-38,193
-39,004
-39,829
-40,666
-41,513
-42,368
-43,229
-44,093
-44,959
-45,824
-46,687
-47,545
-48,397
-49,24
-50,074
-50,896
-51,707
-52,503
-53,285
-54,052
-54,801
-55,533
-56,247
-56,942
-57,616
-58,27
-58,903
-59,515
-60,104
-60,671
-61,215
-61,736
-62,233
-62,708
-63,159
-63,587
-63,992
-64,375
-64,735
-65,073
-65,39
-65,686
-65,961
-66,216
-66,451
-66,665
-66,86
-67,035
-67,191
-67,327
-67,443
-67,539
-67,616
-67,673
-67,711
-67,729
-67,727
-67,706
-67,666
-67,607
-67,529
-67,434
-67,321
-67,191
-67,045
-66,883
-66,707
-66,516
-66,311
-66,094
-65,864
-65,622
-65,369
-65,105
-64,832
-64,548
-64,256
-63,956
-63,649
-63,334
-63,015
-62,69
-62,361
-62,029
-61,695
-61,36
-61,023
-60,687
-60,352
-60,018
-59,686
-59,357
-59,031
-58,708
-58,388
-58,072
-57,759
-57,45
-57,145
-56,843
-56,546
-56,253
-55,965
-55,681
-55,404
-55,132
-54,868
-54,611
-54,362
-54,122
-53,892
-53,672
-53,463
-53,265
-53,081
-52,909
-52,752
-52,609
-52,482
-52,372
-52,279
-52,205
-52,151
-52,117
-52,106
-52,118
-52,155
-52,218
-52,308
-52,427
-52,575
-52,754
-52,965
-53,209
-53,485
-53,794
-54,137
-54,512
-54,921
-55,361
-55,834
-56,337
-56,871
-57,434
-58,025
-58,642
-59,285
-59,952
-60,641
-61,351
-62,078
-62,821
-63,578
-64,344
-65,118
-65,896
-66,673
-67,447
-68,212
-68,966
-69,703
-70,419
-71,11
-71,771
-72,398
-72,986
-73,531
-74,028
-74,473
-74,862
-75,192
-75,458
-75,656
-75,784
-75,838
-75,814
-75,71
-75,523
-75,25
-74,889
-74,438
-73,896
-73,263
-72,538
-71,721
-70,814
-69,82
-68,743
-67,587
-66,356
-65,057
-63,695
-62,276
-60,806
-59,291
-57,736
-56,15
-54,54
-52,914
-51,283
-49,657
-48,047
-46,465
-44,922
-43,43
-41,997
-40,633
-39,347
-38,15
-37,057
-36,084
-35,246
-34,554
-34,018
-33,644
-33,432
-33,375
-33,458
-33,652
-33,933
-34,281
-34,677
-35,107
-35,55
-35,983
-36,38
-36,71
-36,945
-37,072
-37,076
-36,952
-36,719
-36,405
-36,066
-35,8
-35,686
-35,787
-36,162
-36,84
-37,882
-39,386
-41,423
-44,055
-47,322
-51,194
-55,679
-60,833
-66,54
-72,551
-78,588
-84,248
-89,316
-93,843
-97,684
-100,525
-102,299
-103,044
-102,866
-102,102
-100,562
-97,46
-92,369
-85,181
-75,622
-63,471
-48,394
-29,767
-7,825
16,272
41,62
67,505
93,164
118,03
141,26
161,581
178,467
192,166
202,919
211,103
216,85
219,821
219,909
217,315
211,942
203,549
191,693
175,547
154,975
130,644
103,456
74,643
45,407
16,642
-10,352
-33,824
-52,769
-66,882
-76,447
-82,528
-85,948
-87,127
-86,858
-86,182
-85,742
-85,9
-86,506
-86,82
-86,457
-85,38
-83,465
-80,647
-76,956
-72,461
-67,511
-62,674
-58,293
-54,523
-51,442
-49,011
-47,217
-46,055
-45,436
-45,217
-45,279
-45,532
-45,926
-46,424
-46,96
-47,446
-47,785
-47,902
-47,763
-47,346
-46,647
-45,678
-44,45
-42,99
-41,335
-39,519
-37,573
-35,523
-33,387
-31,186
-28,949
-26,707
-24,493
-22,332
-20,235
-18,206
-16,244
-14,342
-12,489
-10,67
-8,864
-7,051
-5,219
-3,352
-1,439
0,536
2,587
4,733
6,99
9,374
11,898
14,576
17,424
20,453
23,67
27,086
30,708
34,548
38,619
42,931
47,485
52,279
57,307
62,56
68,026
73,685
79,507
85,465
91,537
97,703
103,953
110,268
116,623
122,988
129,33
135,63
141,878
148,063
154,179
160,228
166,223
172,195
178,192
184,243
190,357
196,524
202,719
208,923
215,126
221,315
227,466
233,542
239,49
245,265
250,822
256,094
260,99
265,382
269,124
272,097
274,218
275,429
275,689
274,954
273,167
270,291
266,316
261,247
255,099
247,881
239,593
230,273
220,003
208,912
197,157
184,874
172,175
159,161
145,937
132,618
119,338
106,218
93,346
80,805
68,676
57,054
46,051
35,744
26,164
17,306
9,14
1,644
-5,195
-11,394
-16,996
-22,057
-26,652
-30,854
-34,71
-38,264
-41,566
-44,674
-47,665
-50,596
-53,495
-56,366
-59,211
-62,027
-64,818
-67,582
-70,29
-72,908
-75,392
-77,695
-79,791
-81,661
-83,284
-84,639
-85,703
-86,458
-86,906
-87,056
-86,92
-86,508
-85,833
-84,906
-83,756
-82,415
-80,915
-79,294
-77,578
-75,789
-73,948
-72,075
-70,187
-68,297
-66,414
-64,541
-62,685
-60,851
-59,047
-57,28
-55,55
-53,86
-52,209
-50,598
-49,027
-47,499
-46,014
-44,574
-43,182
-41,839
-40,549
-39,316
-38,141
-37,026
-35,971
-34,975
-34,038
-33,159
-32,337
-31,571
-30,858
-30,199
-29,591
-29,035
-28,529
-28,072
-27,664
-27,303
-26,989
-26,72
-26,497
-26,319
-26,184
-26,092
-26,041
-26,032
-26,064
-26,134
-26,242
-26,387
-26,567
-26,782
-27,028
-27,306
-27,614
-27,95
-28,312
-28,699
-29,109
-29,54
-29,992
-30,461
-30,947
-31,446
-31,957
-32,477
-33,005
-33,536
-34,068
-34,598
-35,123
-35,64
-36,147
-36,639
-37,114
-37,569
-38,003
-38,411
-38,791
-39,141
-39,459
-39,743
-39,989
-40,197
-40,365
-40,491
-40,575
-40,614
-40,608
-40,557
-40,46
-40,317
-40,127
-39,89
-39,608
-39,279
-38,905
-38,487
-38,026
-37,523
-36,98
-36,399
-35,782
-35,13
-34,446
-33,732
-32,991
-32,223
-31,433
-30,621
-29,79
-28,943
-28,081
-27,208
-26,324
-25,433
-24,536
-23,634
-22,729
-21,824
-20,918
-20,015
-19,114
-18,216
-17,325
-16,439
-15,561
-14,691
-13,829
-12,977
-12,135
-11,302
-10,48
-9,668
-8,866
-8,075
-7,294
-6,524
-5,764
-5,015
-4,276
-3,547
-2,829
-2,121
-1,423
-0,735
-0,058
0,609
1,266
1,91
2,543
3,164
3,771
4,364
4,943
5,506
6,053
6,583
7,096
7,59
8,065
8,52
8,954
9,366
9,756
10,122
10,464
10,782
11,074
11,341
11,582
11,798
11,987
12,149
12,286
12,395
12,478
12,535
12,566
12,572
12,554
12,512
12,449
12,365
12,262
12,142
12,006
11,857
11,695
11,523
11,343
11,158
10,97
10,781
10,593
10,41
10,233
10,066
9,909
9,765
9,636
9,524
9,431
9,358
9,307
9,281
9,279
9,305
9,359
9,443
9,557
9,702
9,879
10,088
10,328
10,601
10,905
11,24
11,606
12,003
12,428
12,882
13,363
13,869
14,398
14,949
15,519
16,106
16,709
17,325
17,952
18,59
19,235
19,887
20,544
21,205
21,868
22,53
23,192
23,851
24,507
25,157
25,802
26,442
27,074
27,7
28,318
28,927
29,528
30,12
30,702
31,273
31,833
32,381
32,92
33,448
33,967
34,477
34,98
35,477
35,968
36,453
36,933
37,408
37,877
38,34
38,798
39,25
39,696
40,135
40,568
40,993
41,41
41,818
42,215
42,6
42,971
43,328
43,67
43,997
44,308
44,605
44,889
45,162
45,424
45,675
45,916
46,146
46,364
46,568
46,756
46,924
47,074
47,205
47,32
47,419
47,505
47,58
47,648
47,71
47,77
47,827
47,878
47,922
47,961
47,995
48,031
48,071
48,109
48,143
48,17
48,18
48,163
48,101
47,963
47,73
47,388
46,933
46,367
45,691
44,902
44,005
43,005
41,908
40,729
39,473
38,137
36,732
35,273
33,791
32,343
30,963
29,662
28,452
27,333
26,304
25,373
24,527
23,731
22,96
22,186
21,398
20,607
19,803
18,968
18,07
17,047
15,859
14,492
12,907
11,07
8,946
6,468
3,613
0,402
-3,164
-7,068
-11,328
-16,013
-21,159
-26,776
-32,863
-39,348
-46,198
-53,459
-60,994
-68,528
-75,795
-82,422
-88,233
-93,345
-97,658
-100,866
-102,937
-103,96
-104,066
-103,624
-102,456
-99,729
-94,999
-88,144
-78,873
-66,963
-52,048
-33,451
-11,359
13,118
39,111
65,914
92,791
119,206
144,341
167,016
186,667
203,352
217,152
228,245
236,731
242,526
245,607
246,007
243,735
238,826
231,178
220,58
206,901
190,016
170,347
148,934
126,575
103,816
81,379
59,977
40,454
23,976
10,888
0,62
-7,16
-12,661
-16,189
-17,888
-18,176
-17,901
-17,321
-16,078
-14,028
-11,084
-7,245
-2,777
2,217
7,858
13,976
20,164
26,127
31,6
36,446
40,727
44,449
47,565
50,123
52,21
53,927
55,395
56,691
57,843
58,911
59,974
61,118
62,444
64,015
65,86
68,002
70,446
73,184
76,199
79,46
82,924
86,552
90,309
94,164
98,095
102,069
106,056
110,021
113,925
117,744
121,465
125,078
128,58
131,973
135,262
138,46
141,583
144,644
147,654
150,625
153,566
156,489
159,409
162,339
165,293
168,286
171,33
174,44
177,629
180,905
184,28
187,765
191,373
195,119
199,014
203,065
207,272
211,636
216,15
220,806
225,587
230,467
235,421
240,428
245,473
250,544
255,625
260,692
265,717
270,671
275,536
280,306
284,975
289,541
294,009
298,397
302,743
307,095
311,487
315,932
320,426
324,949
329,484
334,018
338,539
343,021
347,42
351,678
355,74
359,544
363,013
366,043
368,495
370,22
371,099
371,041
369,982
367,879
364,688
360,369
354,889
348,236
340,418
331,448
321,347
310,141
297,88
284,653
270,6
255,868
240,585
224,865
208,804
192,498
176,045
159,546
143,102
126,807
110,761
95,063
79,807
65,087
50,98
37,531
24,745
12,62
1,154
-9,651
-19,796
-29,287
-38,141
-46,383
-54,044
-61,169
-67,825
-74,076
-79,986
-85,617
-91,03
-96,266
-101,353
-106,308
-111,141
-115,861
-120,477
-124,991
-129,403
-133,706
-137,887
-141,922
-145,772
-149,404
-152,794
-155,919
-158,762
-161,312
-163,565
-165,526
-167,212
-168,639
-169,823
-170,783
-171,536
-172,106
-172,52
-172,807
-173,003
-173,14
-173,24
-173,328
-173,422
-173,538
-173,692
-173,891
-174,137
-174,434
-174,786
-175,198
-175,674
-176,218
-176,831
-177,512
-178,263
-179,083
-179,974
-180,937
-181,973
-183,084
-184,272
-185,539
-186,889
-188,325
-189,846
-191,454
-193,148
-194,928
-196,794
-198,744
-200,78
-202,899
-205,102
-207,39
-209,763
-212,222
-214,767
-217,4
-220,121
-222,931
-225,831
-228,82
-231,9
-235,072
-238,334
-241,687
-245,13
-248,663
-252,284
-255,992
-259,784
-263,658
-267,61
-271,638
-275,738
-279,905
-284,136
-288,426
-292,77
-297,162
-301,596
-306,066
-310,565
-315,085
-319,618
-324,155
-328,686
-333,202
-337,692
-342,145
-346,551
-350,898
-355,175
-359,371
-363,473
-367,469
-371,349
-375,101
-378,713
-382,174
-385,473
-388,599
-391,544
-394,296
-396,847
-399,188
-401,312
-403,209
-404,874
-406,298
-407,477
-408,406
-409,078
-409,491
-409,642
-409,529
-409,151
-408,507
-407,598
-406,427
-404,994
-403,304
-401,359
-399,165
-396,726
-394,049
-391,139
-388,004
-384,651
-381,089
-377,327
-373,372
-369,234
-364,923
-360,448
-355,819
-351,046
-346,139
-341,108
-335,965
-330,718
-325,38
-319,961
-314,471
-308,921
-303,321
-297,68
-292,009
-286,316
-280,611
-274,901
-269,196
-263,504
-257,831
-252,187
-246,578
-241,01
-235,49
-230,025
-224,62
-219,28
-214,01
-208,815
-203,7
-198,668
-193,723
-188,87
-184,11
-179,447
-174,883
-170,421
-166,061
-161,806
-157,655
-153,609
-149,668
-145,831
-142,099
-138,471
-134,946
-131,522
-128,198
-124,973
-121,845
-118,812
-115,87
-113,019
-110,253
-107,571
-104,97
-102,445
-99,994
-97,612
-95,296
-93,043
-90,847
-88,704
-86,612
-84,565
-82,559
-80,591
-78,656
-76,751
-74,873
-73,02
-71,187
-69,373
-67,576
-65,793
-64,023
-62,264
-60,514
-58,773
-57,039
-55,311
-53,59
-51,875
-50,166
-48,464
-46,769
-45,082
-43,404
-41,736
-40,08
-38,437
-36,809
-35,198
-33,606
-32,036
-30,489
-28,968
-27,475
-26,012
-24,581
-23,183
-21,821
-20,494
-19,205
-17,952
-16,737
-15,56
-14,42
-13,318
-12,254
-11,226
-10,234
-9,278
-8,356
-7,466
-6,608
-5,78
-4,979
-4,205
-3,455
-2,727
-2,019
-1,33
-0,656
0,005
0,654
1,295
1,931
2,563
3,194
3,825
4,459
5,097
5,739
6,386
7,038
7,694
8,355
9,02
9,689
10,36
11,034
11,709
12,385
13,06
13,734
14,403
15,067
15,725
16,373
17,012
17,639
18,254
18,854
19,44
20,009
20,561
21,094
21,607
22,1
22,57
23,02
23,447
23,855
24,244
24,616
24,975
25,326
25,672
26,016
26,364
26,719
27,085
27,465
27,862
28,278
28,716
29,183
29,681
30,219
30,802
31,437
32,131
32,89
33,719
34,623
35,605
36,663
37,801
39,021
40,326
41,721
43,21
44,79
46,46
48,211
50,033
51,911
53,821
55,739
57,645
59,526
61,373
63,19
64,975
66,729
68,456
70,15
71,806
73,426
75,006
76,543
78,046
79,529
81,019
82,554
84,154
85,827
87,574
89,374
91,207
93,051
94,871
96,647
98,366
100,01
101,572
103,049
104,423
105,676
106,781
107,693
108,382
108,834
109,029
108,959
108,623
108,024
107,163
106,034
104,616
102,883
100,816
98,394
95,601
92,415
88,813
84,795
80,373
75,572
70,451
65,093
59,58
54,008
48,498
43,178
38,217
33,815
30,142
27,379
25,727
25,392
26,646
29,772
34,91
42,08
51,164
61,893
74,09
87,664
102,363
117,923
134,263
151,434
169,839
190,075
212,272
236,17
261,422
287,463
313,508
338,571
361,123
379,445
392,404
399,309
399,781
393,738
381,229
362,641
338,935
311,342
280,956
248,889
216,215
184,181
154,296
127,785
105,537
88,16
75,943
68,837
66,514
68,052
72,014
77,143
82,312
86,655
89,726
91,282
91,294
90,19
88,729
87,497
86,949
87,297
88,432
90,231
92,53
95,024
97,348
99,249
100,575
101,306
101,566
101,466
101,112
100,623
100,097
99,616
99,247
99,052
99,078
99,364
99,937
100,814
102,007
103,52
105,345
107,454
109,802
112,348
115,053
117,883
120,816
123,821
126,867
129,922
132,949
135,922
138,825
141,643
144,366
146,986
149,502
151,921
154,259
156,526
158,732
160,886
162,994
165,066
167,116
169,158
171,205
173,272
175,369
177,513
179,717
181,995
184,36
186,824
189,394
192,081
194,9
197,865
200,992
204,294
207,774
211,436
215,28
219,301
223,491
227,832
232,299
236,871
241,531
246,262
251,054
255,889
260,743
265,596
270,424
275,21
279,948
284,632
289,255
293,825
298,359
302,879
307,422
312,007
316,633
321,298
325,984
330,673
335,351
339,986
344,536
348,959
353,194
357,176
360,839
364,096
366,843
368,988
370,418
371,042
370,797
369,619
367,463
364,297
360,086
354,822
348,52
341,194
332,88
323,637
313,518
302,606
290,998
278,767
266,011
252,831
239,307
225,536
211,612
197,617
183,648
169,801
156,149
142,762
129,702
116,995
104,682
92,795
81,356
70,42
60,021
50,172
40,893
32,19
24,05
16,465
9,402
2,799
-3,384
-9,183
-14,626
-19,716
-24,469
-28,911
-33,065
-36,975
-40,676
-44,188
-47,535
-50,737
-53,799
-56,724
-59,494
-62,063
-64,403
-66,501
-68,349
-69,958
-71,333
-72,473
-73,381
-74,062
-74,519
-74,764
-74,803
-74,643
-74,298
-73,787
-73,141
-72,401
-71,602
-70,767
-69,918
-69,068
-68,23
-67,418
-66,639
-65,896
-65,192
-64,531
-63,917
-63,356
-62,853
-62,404
-62,009
-61,661
-61,356
-61,091
-60,862
-60,667
-60,503
-60,368
-60,262
-60,184
-60,136
-60,117
-60,123
-60,153
-60,204
-60,274
-60,362
-60,465
-60,581
-60,708
-60,846
-60,995
-61,156
-61,328
-61,512
-61,709
-61,921
-62,15
-62,397
-62,664
-62,955
-63,27
-63,613
-63,987
-64,394
-64,838
-65,319
-65,841
-66,407
-67,017
-67,674
-68,379
-69,134
-69,939
-70,794
-71,701
-72,659
-73,668
-74,727
-75,835
-76,99
-78,191
-79,435
-80,719
-82,04
-83,394
-84,777
-86,184
-87,61
-89,051
-90,5
-91,954
-93,405
-94,849
-96,279
-97,69
-99,076
-100,431
-101,75
-103,027
-104,257
-105,434
-106,554
-107,611
-108,603
-109,524
-110,371
-111,141
-111,832
-112,441
-112,967
-113,409
-113,766
-114,038
-114,226
-114,33
-114,352
-114,294
-114,159
-113,948
-113,666
-113,317
-112,903
-112,43
-111,901
-111,322
-110,697
-110,031
-109,329
-108,597
-107,84
-107,063
-106,272
-105,471
-104,666
-103,863
-103,065
-102,279
-101,507
-100,755
-100,025
-99,322
-98,648
-98,005
-97,396
-96,823
-96,286
-95,787
-95,327
-94,905
-94,522
-94,178
-93,87
-93,6
-93,365
-93,164
-92,996
-92,859
-92,751
-92,67
-92,614
-92,581
-92,568
-92,573
-92,594
-92,628
-92,671
-92,721
-92,776
-92,833
-92,889
-92,942
-92,99
-93,032
-93,065
-93,088
-93,101
-93,101
-93,089
-93,063
-93,023
-92,969
-92,899
-92,815
-92,715
-92,6
-92,47
-92,324
-92,163
-91,985
-91,792
-91,583
-91,357
-91,115
-90,858
-90,584
-90,296
-89,993
-89,677
-89,349
-89,009
-88,658
-88,298
-87,929
-87,552
-87,169
-86,78
-86,385
-85,985
-85,582
-85,175
-84,765
-84,352
-83,938
-83,523
-83,108
-82,692
-82,278
-81,865
-81,456
-81,051
-80,652
-80,259
-79,875
-79,501
-79,138
-78,787
-78,449
-78,124
-77,813
-77,516
-77,232
-76,961
-76,703
-76,456
-76,221
-75,995
-75,779
-75,57
-75,368
-75,171
-74,978
-74,789
-74,601
-74,414
-74,227
-74,038
-73,847
-73,652
-73,453
-73,248
-73,036
-72,815
-72,584
-72,343
-72,088
-71,821
-71,539
-71,243
-70,932
-70,606
-70,267
-69,915
-69,551
-69,177
-68,795
-68,408
-68,017
-67,627
-67,239
-66,857
-66,485
-66,125
-65,781
-65,455
-65,151
-64,87
-64,615
-64,388
-64,189
-64,021
-63,884
-63,779
-63,707
-63,669
-63,663
-63,691
-63,751
-63,842
-63,962
-64,109
-64,281
-64,473
-64,682
-64,904
-65,134
-65,367
-65,597
-65,817
-66,022
-66,204
-66,356
-66,47
-66,54
-66,559
-66,52
-66,417
-66,244
-65,996
-65,67
-65,264
-64,775
-64,203
-63,547
-62,808
-61,987
-61,084
-60,1
-59,037
-57,896
-56,681
-55,397
-54,049
-52,644
-51,192
-49,703
-48,186
-46,65
-45,105
-43,56
-42,024
-40,508
-39,025
-37,589
-36,221
-34,94
-33,761
-32,696
-31,753
-30,932
-30,226
-29,624
-29,103
-28,65
-28,25
-27,891
-27,568
-27,267
-26,974
-26,668
-26,315
-25,887
-25,366
-24,745
-24,033
-23,252
-22,438
-21,654
-20,985
-20,497
-20,235
-20,226
-20,496
-21,104
-22,139
-23,681
-25,793
-28,488
-31,781
-35,717
-40,247
-45,186
-50,207
-54,917
-59,062
-62,624
-65,621
-67,913
-69,397
-70,119
-70,425
-70,761
-71,122
-70,981
-69,595
-66,572
-61,849
-55,244
-46,035
-33,304
-16,709
3,424
26,131
50,714
77,197
105,422
134,402
162,673
188,83
211,734
231,217
247,206
258,649
264,57
264,654
259,018
248,414
234,002
215,969
194,075
169,115
142,172
114,426
87,315
61,507
36,998
14,606
-4,308
-19,138
-29,671
-36,338
-40,385
-42,49
-42,789
-41,918
-40,825
-40,118
-40,22
-40,992
-41,63
-41,731
-41,271
-40,112
-38,155
-35,407
-31,897
-27,914
-24,02
-20,551
-17,648
-15,4
-13,771
-12,726
-12,252
-12,247
-12,546
-13,03
-13,615
-14,238
-14,869
-15,435
-15,839
-16,011
-15,9
-15,476
-14,732
-13,659
-12,263
-10,57
-8,619
-6,448
-4,095
-1,59
1,042
3,769
6,56
9,379
12,185
14,95
17,651
20,274
22,81
25,255
27,611
29,885
32,094
34,25
36,363
38,442
40,496
42,536
44,575
46,623
48,695
50,8
52,95
55,158
57,435
59,791
62,239
64,786
67,443
70,219
73,127
76,178
79,383
82,75
86,29
90,013
93,928
98,048
102,378
106,915
111,657
116,594
121,715
127,007
132,444
138
143,649
149,367
155,136
160,941
166,758
172,565
178,341
184,057
189,698
195,258
200,728
206,109
211,412
216,648
221,842
227,031
232,228
237,436
242,648
247,842
253,008
258,13
263,18
268,128
272,937
277,554
281,933
286,014
289,707
292,928
295,574
297,526
298,703
299,041
298,485
297
294,541
291,068
286,574
281,062
274,539
267,033
258,555
249,143
238,885
227,871
216,213
204,045
191,474
178,6
165,534
152,381
139,259
126,299
113,59
101,214
89,258
77,793
66,917
56,702
47,169
38,334
30,195
22,728
15,924
9,768
4,216
-0,783
-5,295
-9,407
-13,175
-16,646
-19,878
-22,92
-25,843
-28,706
-31,534
-34,343
-37,145
-39,941
-42,741
-45,549
-48,341
-51,088
-53,752
-56,281
-58,644
-60,821
-62,787
-64,524
-66,01
-67,225
-68,169
-68,851
-69,278
-69,46
-69,405
-69,12
-68,63
-67,963
-67,148
-66,22
-65,207
-64,127
-63,001
-61,845
-60,675
-59,504
-58,337
-57,176
-56,024
-54,886
-53,766
-52,67
-51,599
-50,553
-49,531
-48,532
-47,557
-46,606
-45,68
-44,78
-43,908
-43,068
-42,262
-41,494
-40,768
-40,085
-39,446
-38,851
-38,302
-37,797
-37,337
-36,92
-36,546
-36,213
-35,922
-35,671
-35,46
-35,288
-35,154
-35,056
-34,995
-34,969
-34,976
-35,016
-35,088
-35,19
-35,322
-35,482
-35,67
-35,883
-36,122
-36,384
-36,668
-36,973
-37,298
-37,641
-38
-38,375
-38,765
-39,168
-39,583
-40,01
-40,448
-40,897
-41,356
-41,824
-42,3
-42,786
-43,279
-43,78
-44,288
-44,802
-45,323
-45,851
-46,384
-46,923
-47,468
-48,017
-48,572
-49,132
-49,696
-50,264
-50,835
-51,408
-51,984
-52,56
-53,137
-53,714
-54,29
-54,865
-55,436
-56,003
-56,566
-57,123
-57,673
-58,214
-58,746
-59,268
-59,778
-60,276
-60,759
-61,228
-61,682
-62,119
-62,538
-62,938
-63,318
-63,678
-64,015
-64,33
-64,622
-64,89
-65,132
-65,35
-65,543
-65,71
-65,852
-65,969
-66,06
-66,127
-66,169
-66,187
-66,183
-66,156
-66,109
-66,041
-65,955
-65,851
-65,73
-65,594
-65,443
-65,279
-65,102
-64,915
-64,716
-64,508
-64,292
-64,068
-63,838
-63,602
-63,363
-63,12
-62,876
-62,63
-62,385
-62,141
-61,9
-61,662
-61,428
-61,199
-60,977
-60,761
-60,552
-60,351
-60,158
-59,974
-59,797
-59,629
-59,469
-59,317
-59,173
-59,037
-58,909
-58,789
-58,678
-58,576
-58,482
-58,397
-58,321
-58,255
-58,199
-58,152
-58,115
-58,087
-58,069
-58,06
-58,06
-58,068
-58,083
-58,106
-58,134
-58,167
-58,205
-58,246
-58,289
-58,334
-58,38
-58,426
-58,472
-58,517
-58,562
-58,605
-58,646
-58,686
-58,723
-58,757
-58,788
-58,816
-58,838
-58,856
-58,867
-58,872
-58,87
-58,86
-58,842
-58,815
-58,779
-58,735
-58,682
-58,621
-58,553
-58,477
-58,396
-58,31
-58,22
-58,129
-58,036
-57,945
-57,855
-57,769
-57,688
-57,612
-57,542
-57,479
-57,424
-57,376
-57,337
-57,307
-57,286
-57,274
-57,272
-57,279
-57,297
-57,324
-57,362
-57,408
-57,463
-57,526
-57,595
-57,669
-57,746
-57,823
-57,899
-57,97
-58,033
-58,085
-58,121
-58,137
-58,129
-58,092
-58,022
-57,914
-57,763
-57,566
-57,319
-57,018
-56,659
-56,24
-55,757
-55,209
-54,593
-53,906
-53,148
-52,317
-51,411
-50,43
-49,376
-48,248
-47,049
-45,782
-44,449
-43,057
-41,609
-40,111
-38,57
-36,991
-35,383
-33,752
-32,105
-30,451
-28,798
-27,155
-25,535
-23,946
-22,399
-20,906
-19,476
-18,12
-16,851
-15,679
-14,611
-13,656
-12,823
-12,125
-11,578
-11,192
-10,971
-10,916
-11,026
-11,296
-11,72
-12,279
-12,943
-13,682
-14,466
-15,269
-16,075
-16,856
-17,581
-18,213
-18,714
-19,065
-19,265
-19,316
-19,218
-18,983
-18,638
-18,244
-17,891
-17,662
-17,626
-17,847
-18,377
-19,29
-20,66
-22,551
-25
-28,002
-31,516
-35,49
-39,87
-44,573
-49,472
-54,386
-59,081
-63,317
-66,878
-69,552
-71,113
-71,319
-69,959
-66,796
-61,656
-54,567
-45,569
-34,738
-22,205
-7,939
8,046
25,415
43,773
62,948
82,678
102,81
123,189
142,97
161,341
177,984
192,661
205,152
215,353
222,741
226,706
227,544
225,4
219,951
210,928
197,761
179,987
158,013
132,686
104,522
74,595
44,478
15,645
-10,013
-30,885
-46,292
-56,11
-60,503
-60,384
-57,128
-51,992
-46,443
-41,65
-38,188
-36,355
-36,124
-37,003
-38,255
-39,318
-39,723
-39,251
-37,964
-35,961
-33,432
-30,702
-28,156
-26,059
-24,546
-23,629
-23,196
-23,137
-23,36
-23,755
-24,203
-24,609
-24,886
-24,952
-24,772
-24,32
-23,567
-22,503
-21,113
-19,388
-17,35
-15,037
-12,486
-9,736
-6,821
-3,764
-0,596
2,647
5,929
9,21
12,461
15,664
18,799
21,855
24,82
27,687
30,46
33,15
35,768
38,325
40,829
43,285
45,704
48,098
50,48
52,861
55,253
57,665
60,107
62,591
65,127
67,73
70,409
73,173
76,035
79,006
82,1
85,33
88,707
92,239
95,934
99,801
103,849
108,091
112,532
117,171
122,006
127,031
132,236
137,612
143,137
148,781
154,517
160,314
166,151
172,019
177,903
183,784
189,646
195,466
201,234
206,954
212,622
218,231
223,776
229,248
234,658
240,036
245,4
250,758
256,099
261,386
266,587
271,672
276,596
281,312
285,75
289,815
293,434
296,549
299,102
301,041
302,292
302,758
302,364
301,063
298,826
295,656
291,557
286,532
280,615
273,863
266,355
258,201
249,489
240,285
230,663
220,69
210,455
200,068
189,616
179,165
168,774
158,486
148,346
138,403
128,679
119,174
109,878
100,76
91,807
83,029
74,429
66,012
57,779
49,718
41,834
34,142
26,656
19,389
12,352
5,548
-1,006
-7,283
-13,257
-18,897
-24,182
-29,104
-33,656
-37,833
-41,635
-45,063
-48,124
-50,834
-53,208
-55,257
-56,995
-58,432
-59,585
-60,474
-61,119
-61,539
-61,754
-61,782
-61,641
-61,347
-60,918
-60,369
-59,712
-58,96
-58,124
-57,219
-56,257
-55,25
-54,211
-53,151
-52,08
-51,01
-49,949
-48,905
-47,887
-46,898
-45,946
-45,033
-44,165
-43,343
-42,57
-41,848
-41,178
-40,56
-39,995
-39,482
-39,021
-38,61
-38,249
-37,936
-37,67
-37,449
-37,273
-37,141
-37,05
-37,001
-36,992
-37,021
-37,088
-37,191
-37,329
-37,5
-37,703
-37,937
-38,199
-38,49
-38,807
-39,15
-39,518
-39,911
-40,327
-40,766
-41,228
-41,712
-42,218
-42,746
-43,295
-43,866
-44,457
-45,068
-45,699
-46,349
-47,018
-47,704
-48,407
-49,126
-49,859
-50,605
-51,364
-52,132
-52,911
-53,696
-54,489
-55,286
-56,088
-56,892
-57,697
-58,502
-59,307
-60,109
-60,909
-61,704
-62,494
-63,278
-64,055
-64,824
-65,583
-66,332
-67,069
-67,795
-68,507
-69,206
-69,892
-70,562
-71,218
-71,859
-72,484
-73,094
-73,688
-74,266
-74,829
-75,375
-75,906
-76,422
-76,922
-77,406
-77,876
-78,33
-78,769
-79,193
-79,601
-79,993
-80,37
-80,73
-81,075
-81,404
-81,718
-82,015
-82,297
-82,564
-82,815
-83,051
-83,271
-83,476
-83,666
-83,84
-83,998
-84,141
-84,268
-84,38
-84,477
-84,558
-84,624
-84,674
-84,71
-84,73
-84,736
-84,726
-84,703
-84,665
-84,613
-84,548
-84,47
-84,38
-84,279
-84,165
-84,041
-83,906
-83,76
-83,604
-83,438
-83,263
-83,079
-82,885
-82,684
-82,475
-82,258
-82,034
-81,803
-81,566
-81,324
-81,075
-80,822
-80,564
-80,302
-80,036
-79,767
-79,495
-79,221
-78,945
-78,667
-78,389
-78,111
-77,834
-77,559
-77,287
-77,019
-76,756
-76,5
-76,252
-76,014
-75,785
-75,569
-75,366
-75,178
-75,006
-74,852
-74,717
-74,604
-74,513
-74,447
-74,406
-74,391
-74,404
-74,445
-74,515
-74,616
-74,748
-74,912
-75,109
-75,338
-75,6
-75,895
-76,221
-76,578
-76,962
-77,371
-77,803
-78,253
-78,717
-79,192
-79,673
-80,156
-80,639
-81,116
-81,582
-82,032
-82,463
-82,868
-83,241
-83,574
-83,858
-84,086
-84,253
-84,352
-84,378
-84,324
-84,184
-83,954
-83,63
-83,21
-82,687
-82,051
-81,291
-80,404
-79,393
-78,268
-77,034
-75,701
-74,275
-72,768
-71,198
-69,577
-67,905
-66,176
-64,377
-62,505
-60,57
-58,587
-56,575
-54,545
-52,496
-50,421
-48,323
-46,203
-44,059
-41,877
-39,635
-37,326
-34,973
-32,629
-30,348
-28,175
-26,139
-24,246
-22,506
-20,934
-19,546
-18,354
-17,355
-16,542
-15,917
-15,501
-15,325
-15,399
-15,693
-16,135
-16,647
-17,164
-17,636
-18,046
-18,38
-18,629
-18,809
-18,95
-19,097
-19,303
-19,602
-20,012
-20,573
-21,347
-22,416
-23,875
-25,79
-28,235
-31,322
-35,056
-39,304
-43,798
-48,201
-52,3
-56,098
-59,602
-62,634
-65,089
-67,042
-68,832
-70,931
-73,365
-75,528
-76,543
-75,826
-72,984
-67,599
-58,962
-46,178
-28,924
-7,798
15,933
41,135
66,985
92,704
117,335
139,678
158,769
174,281
186,564
195,956
202,673
207
209,025
208,854
206,64
202,252
195,323
185,623
172,739
156,04
135,593
111,952
85,942
58,865
31,905
5,95
-17,689
-37,371
-52,21
-61,963
-67,033
-68,599
-67,558
-64,423
-60,054
-55,545
-51,632
-48,747
-46,783
-45,016
-43,034
-40,8
-38,23
-35,259
-31,872
-28,051
-24,011
-20,229
-16,998
-14,419
-12,52
-11,21
-10,411
-10,084
-10,135
-10,411
-10,789
-11,163
-11,441
-11,571
-11,509
-11,21
-10,647
-9,801
-8,662
-7,238
-5,555
-3,652
-1,564
0,673
3,03
5,482
7,994
10,533
13,063
15,554
17,982
20,334
22,6
24,771
26,846
28,828
30,73
32,571
34,369
36,138
37,891
39,64
41,401
43,191
45,026
46,92
48,887
50,939
53,089
55,353
57,743
60,269
62,943
65,774
68,773
71,949
75,315
78,878
82,646
86,626
90,824
95,247
99,904
104,796
109,92
115,269
120,829
126,586
132,521
138,607
144,813
151,108
157,463
163,851
170,251
176,643
183,004
189,312
195,538
201,663
207,679
213,582
219,371
225,052
230,626
236,107
241,523
246,891
252,218
257,498
262,707
267,822
272,814
277,654
282,311
286,742
290,887
294,683
298,065
300,969
303,335
305,09
306,139
306,402
305,819
304,347
301,968
298,67
294,435
289,253
283,134
276,103
268,206
259,497
250,02
239,828
228,977
217,54
205,626
193,342
180,784
168,037
155,184
142,313
129,538
116,972
104,704
92,806
81,34
70,363
59,95
50,172
41,08
32,71
25,066
18,141
11,932
6,432
1,614
-2,564
-6,179
-9,32
-12,05
-14,421
-16,481
-18,278
-19,881
-21,356
-22,749
-24,092
-25,405
-26,7
-27,995
-29,303
-30,613
-31,901
-33,128
-34,238
-35,203
-36,004
-36,623
-37,048
-37,258
-37,236
-36,983
-36,508
-35,822
-34,937
-33,86
-32,603
-31,189
-29,65
-28,017
-26,332
-24,621
-22,906
-21,206
-19,538
-17,916
-16,353
-14,852
-13,412
-12,034
-10,72
-9,473
-8,296
-7,189
-6,146
-5,166
-4,244
-3,377
-2,565
-1,803
-1,091
-0,426
0,19
0,759
1,279
1,75
2,175
2,555
2,894
3,194
3,459
3,692
3,896
4,076
4,234
4,373
4,495
4,601
4,695
4,778
4,851
4,915
4,972
5,023
5,069
5,11
5,148
5,183
5,215
5,246
5,276
5,304
5,332
5,36
5,387
5,414
5,441
5,466
5,489
5,51
5,526
5,536
5,539
5,533
5,514
5,481
5,43
5,361
5,269
5,153
5,009
4,836
4,63
4,39
4,112
3,793
3,432
3,024
2,569
2,062
1,502
0,885
0,211
-0,524
-1,321
-2,182
-3,108
-4,099
-5,158
-6,283
-7,476
-8,736
-10,061
-11,452
-12,906
-14,421
-15,994
-17,623
-19,303
-21,032
-22,804
-24,616
-26,462
-28,337
-30,236
-32,152
-34,081
-36,015
-37,948
-39,873
-41,784
-43,673
-45,534
-47,361
-49,146
-50,885
-52,57
-54,196
-55,758
-57,25
-58,667
-60,006
-61,262
-62,433
-63,515
-64,507
-65,406
-66,212
-66,925
-67,544
-68,07
-68,504
-68,848
-69,105
-69,277
-69,369
-69,384
-69,327
-69,205
-69,023
-68,787
-68,504
-68,18
-67,823
-67,438
-67,033
-66,614
-66,188
-65,762
-65,342
-64,935
-64,548
-64,184
-63,851
-63,552
-63,291
-63,072
-62,898
-62,771
-62,694
-62,668
-62,695
-62,775
-62,91
-63,098
-63,339
-63,63
-63,968
-64,35
-64,771
-65,224
-65,703
-66,202
-66,715
-67,236
-67,76
-68,279
-68,788
-69,285
-69,763
-70,216
-70,637
-71,019
-71,355
-71,638
-71,862
-72,018
-72,104
-72,114
-72,049
-71,91
-71,696
-71,407
-71,039
-70,587
-70,047
-69,422
-68,715
-67,929
-67,076
-66,17
-65,235
-64,303
-63,4
-62,542
-61,739
-60,991
-60,299
-59,664
-59,085
-58,564
-58,1
-57,693
-57,348
-57,066
-56,838
-56,637
-56,417
-56,11
-55,658
-55,022
-54,172
-53,098
-51,8
-50,289
-48,59
-46,741
-44,769
-42,691
-40,516
-38,252
-35,929
-33,604
-31,368
-29,341
-27,635
-26,359
-25,614
-25,479
-26,011
-27,234
-29,139
-31,692
-34,877
-38,696
-43,149
-48,231
-53,892
-60,046
-66,561
-73,272
-79,995
-86,514
-92,594
-98,005
-102,533
-106,006
-108,291
-109,265
-108,774
-106,657
-102,761
-96,97
-89,225
-79,518
-67,899
-54,459
-39,344
-22,769
-4,99
13,698
32,975
52,528
72,041
91,153
109,476
126,591
142,048
155,512
166,78
175,751
182,486
187,06
189,482
189,779
188,008
184,015
177,483
167,981
154,887
137,825
116,873
92,455
65,306
36,652
8,035
-18,939
-42,507
-61,273
-74,495
-81,986
-84,108
-81,885
-76,75
-70,064
-63,233
-57,409
-53,252
-51,097
-50,915
-52,209
-54,233
-56,445
-58,402
-59,821
-60,676
-60,982
-60,843
-60,545
-60,436
-60,716
-61,469
-62,671
-64,185
-65,912
-67,761
-69,608
-71,323
-72,791
-73,931
-74,716
-75,151
-75,238
-74,974
-74,353
-73,375
-72,064
-70,457
-68,595
-66,513
-64,241
-61,812
-59,261
-56,625
-53,942
-51,24
-48,535
-45,844
-43,181
-40,557
-37,982
-35,457
-32,972
-30,509
-28,049
-25,572
-23,058
-20,493
-17,863
-15,163
-12,393
-9,558
-6,668
-3,724
-0,714
2,368
5,529
8,77
12,085
15,459
18,872
22,298
25,705
29,081
32,42
35,733
39,051
42,413
45,866
49,441
53,152
57,002
60,994
65,137
69,441
73,932
78,633
83,583
88,832
94,408
100,329
106,6
113,196
120,078
127,202
134,531
142,048
149,754
157,637
165,675
173,843
182,092
190,377
198,635
206,773
214,709
222,362
229,649
236,508
242,878
248,688
253,876
258,369
262,077
264,938
266,903
267,936
268,027
267,166
265,361
262,65
259,071
254,667
249,493
243,607
237,073
229,979
222,396
214,387
206,027
197,364
188,437
179,277
169,888
160,275
150,452
140,421
130,191
119,785
109,22
98,513
87,68
76,728
65,691
54,626
43,594
32,674
21,942
11,483
1,405
-8,192
-17,226
-25,628
-33,348
-40,357
-46,633
-52,162
-56,94
-60,977
-64,307
-66,988
-69,096
-70,707
-71,894
-72,735
-73,321
-73,737
-74,056
-74,332
-74,604
-74,898
-75,238
-75,64
-76,112
-76,649
-77,234
-77,838
-78,419
-78,945
-79,392
-79,737
-79,954
-80,023
-79,931
-79,675
-79,266
-78,712
-78,022
-77,208
-76,282
-75,262
-74,169
-73,03
-71,87
-70,71
-69,565
-68,448
-67,369
-66,334
-65,347
-64,408
-63,51
-62,649
-61,822
-61,026
-60,26
-59,52
-58,801
-58,099
-57,41
-56,73
-56,058
-55,391
-54,728
-54,071
-53,417
-52,771
-52,133
-51,505
-50,89
-50,287
-49,698
-49,122
-48,562
-48,019
-47,493
-46,985
-46,498
-46,034
-45,595
-45,184
-44,804
-44,456
-44,145
-43,871
-43,637
-43,445
-43,296
-43,194
-43,138
-43,129
-43,169
-43,258
-43,396
-43,582
-43,816
-44,098
-44,427
-44,801
-45,219
-45,679
-46,181
-46,723
-47,302
-47,918
-48,568
-49,251
-49,964
-50,707
-51,477
-52,271
-53,088
-53,925
-54,78
-55,65
-56,533
-57,426
-58,328
-59,234
-60,144
-61,054
-61,963
-62,868
-63,767
-64,657
-65,537
-66,405
-67,259
-68,096
-68,915
-69,715
-70,493
-71,249
-71,98
-72,686
-73,365
-74,016
-74,636
-75,226
-75,783
-76,307
-76,797
-77,251
-77,669
-78,05
-78,394
-78,7
-78,969
-79,2
-79,394
-79,552
-79,674
-79,762
-79,817
-79,841
-79,835
-79,804
-79,748
-79,67
-79,574
-79,462
-79,337
-79,203
-79,062
-78,919
-78,776
-78,636
-78,504
-78,382
-78,273
-78,181
-78,11
-78,062
-78,04
-78,047
-78,086
-78,159
-78,269
-78,417
-78,607
-78,838
-79,112
-79,429
-79,789
-80,191
-80,635
-81,117
-81,636
-82,188
-82,77
-83,379
-84,01
-84,66
-85,322
-85,993
-86,667
-87,339
-88,003
-88,653
-89,285
-89,892
-90,469
-91,01
-91,511
-91,966
-92,369
-92,717
-93,003
-93,225
-93,376
-93,453
-93,452
-93,371
-93,207
-92,959
-92,626
-92,211
-91,714
-91,14
-90,491
-89,774
-88,992
-88,152
-87,26
-86,32
-85,34
-84,326
-83,285
-82,225
-81,155
-80,086
-79,027
-77,987
-76,976
-76,004
-75,084
-74,227
-73,439
-72,729
-72,109
-71,592
-71,197
-70,938
-70,82
-70,849
-71,022
-71,337
-71,789
-72,362
-73,027
-73,755
-74,514
-75,279
-76,034
-76,757
-77,418
-77,982
-78,408
-78,67
-78,768
-78,708
-78,501
-78,163
-77,718
-77,224
-76,774
-76,463
-76,373
-76,569
-77,102
-78,034
-79,44
-81,392
-83,948
-87,12
-90,876
-95,149
-99,862
-104,936
-110,259
-115,664
-120,929
-125,798
-130,008
-133,344
-135,595
-136,529
-135,929
-133,548
-129,115
-122,561
-113,993
-103,546
-91,432
-77,715
-62,259
-45,179
-26,885
-7,593
12,619
33,713
55,817
78,499
100,616
121,293
140,079
156,441
169,951
180,219
186,453
188,43
186,862
182,228
174,597
164,143
150,727
134,044
114,554
92,786
68,835
43,344
17,474
-7,807
-31,172
-50,952
-66,291
-76,856
-82,435
-83,64
-81,63
-77,252
-71,529
-65,774
-60,773
-56,962
-54,597
-53,299
-52,375
-51,48
-50,35
-48,69
-46,477
-43,746
-40,55
-37,21
-34,141
-31,548
-29,537
-28,131
-27,216
-26,705
-26,539
-26,596
-26,747
-26,898
-26,955
-26,845
-26,544
-26,028
-25,271
-24,265
-22,995
-21,457
-19,671
-17,679
-15,516
-13,222
-10,828
-8,358
-5,843
-3,315
-0,809
1,644
4,022
6,313
8,509
10,602
12,589
14,47
16,257
17,966
19,616
21,219
22,789
24,339
25,882
27,435
29,015
30,638
32,32
34,077
35,924
37,878
39,954
42,166
44,528
47,053
49,753
52,637
55,719
59,012
62,528
66,283
70,285
74,535
79,033
83,773
88,746
93,937
99,327
104,885
110,586
116,41
122,336
128,351
134,433
140,554
146,685
152,798
158,872
164,898
170,864
176,764
182,601
188,389
194,15
199,922
205,721
211,544
217,379
223,2
228,987
234,731
240,412
245,996
251,447
256,716
261,751
266,506
270,903
274,84
278,212
280,896
282,801
283,867
284,045
283,303
281,608
278,92
275,216
270,495
264,757
258,012
250,281
241,579
231,965
221,544
210,425
198,735
186,587
174,073
161,289
148,325
135,28
122,261
109,375
96,72
84,397
72,505
61,137
50,388
40,321
30,956
22,303
14,361
7,121
0,583
-5,266
-10,451
-15,004
-18,972
-22,414
-25,4
-28,001
-30,285
-32,321
-34,182
-35,922
-37,576
-39,169
-40,716
-42,226
-43,711
-45,173
-46,609
-48,007
-49,351
-50,611
-51,749
-52,731
-53,532
-54,128
-54,497
-54,626
-54,506
-54,141
-53,544
-52,728
-51,706
-50,494
-49,108
-47,571
-45,907
-44,146
-42,319
-40,454
-38,573
-36,695
-34,837
-33,012
-31,232
-29,503
-27,824
-26,196
-24,622
-23,103
-21,642
-20,238
-18,89
-17,595
-16,35
-15,154
-14,005
-12,904
-11,849
-10,84
-9,879
-8,966
-8,104
-7,294
-6,537
-5,831
-5,176
-4,571
-4,016
-3,508
-3,046
-2,629
-2,255
-1,924
-1,635
-1,386
-1,177
-1,006
-0,871
-0,772
-0,707
-0,675
-0,674
-0,704
-0,764
-0,852
-0,966
-1,106
-1,27
-1,456
-1,662
-1,885
-2,123
-2,375
-2,636
-2,906
-3,182
-3,462
-3,743
-4,023
-4,3
-4,572
-4,838
-5,094
-5,34
-5,572
-5,791
-5,993
-6,179
-6,347
-6,496
-6,627
-6,737
-6,828
-6,899
-6,95
-6,982
-6,993
-6,985
-6,959
-6,915
-6,854
-6,777
-6,686
-6,581
-6,465
-6,339
-6,203
-6,059
-5,91
-5,754
-5,596
-5,434
-5,272
-5,11
-4,949
-4,791
-4,636
-4,485
-4,339
-4,198
-4,061
-3,929
-3,801
-3,677
-3,557
-3,439
-3,323
-3,209
-3,095
-2,98
-2,863
-2,743
-2,618
-2,487
-2,35
-2,203
-2,047
-1,881
-1,702
-1,512
-1,309
-1,092
-0,861
-0,616
-0,356
-0,081
0,209
0,513
0,832
1,164
1,509
1,866
2,233
2,609
2,992
3,382
3,776
4,172
4,569
4,964
5,356
5,742
6,121
6,489
6,845
7,185
7,509
7,814
8,099
8,361
8,599
8,811
8,998
9,158
9,29
9,393
9,467
9,513
9,529
9,517
9,476
9,409
9,315
9,196
9,055
8,891
8,708
8,507
8,29
8,059
7,817
7,567
7,31
7,051
6,792
6,537
6,289
6,052
5,83
5,627
5,446
5,29
5,164
5,07
5,013
4,996
5,021
5,093
5,215
5,389
5,62
5,909
6,259
6,672
7,151
7,698
8,315
9,002
9,763
10,597
11,507
12,494
13,557
14,697
15,913
17,205
18,571
20,009
21,516
23,087
24,718
26,406
28,144
29,927
31,75
33,606
35,491
37,399
39,324
41,26
43,198
45,132
47,053
48,951
50,819
52,647
54,424
56,141
57,789
59,36
60,844
62,23
63,508
64,662
65,677
66,547
67,266
67,829
68,242
68,509
68,642
68,666
68,601
68,472
68,3
68,103
67,901
67,718
67,578
67,515
67,557
67,72
68,015
68,441
68,979
69,606
70,281
70,938
71,504
71,909
72,079
71,962
71,508
70,662
69,369
67,57
65,217
62,294
58,811
54,805
50,353
45,55
40,517
35,432
30,493
25,92
21,942
18,761
16,562
15,549
15,938
17,942
21,756
27,517
35,3
45,13
56,973
70,764
86,398
103,694
122,418
142,266
162,868
183,853
204,863
225,514
245,409
264,104
281,102
296,026
308,685
319,048
327,145
332,878
335,966
336,162
333,483
328,002
319,671
308,177
293,106
274,508
253,128
230,09
206,291
182,432
159,262
137,836
119,444
104,903
94,134
86,391
81,041
77,697
75,998
75,424
75,154
74,567
73,662
72,923
72,727
73,2
74,32
75,999
78,317
81,321
84,775
88,257
91,411
94,032
96,067
97,565
98,52
98,919
98,82
98,331
97,576
96,647
95,586
94,419
93,196
91,986
90,875
89,926
89,168
88,616
88,274
88,135
88,185
88,397
88,732
89,152
89,624
90,121
90,622
91,103
91,537
91,894
92,141
92,256
92,224
92,04
91,702
91,212
90,579
89,814
88,939
87,968
86,915
85,795
84,62
83,407
82,174
80,937
79,716
78,528
77,392
76,325
75,347
74,471
73,712
73,085
72,603
72,281
72,14
72,191
72,439
72,889
73,541
74,387
75,422
76,63
77,984
79,465
81,055
82,74
84,511
86,351
88,237
90,146
92,052
93,937
95,796
97,622
99,41
101,167
102,91
104,665
106,477
108,366
110,332
112,367
114,444
116,544
118,658
120,763
122,823
124,8
126,637
128,281
129,684
130,769
131,434
131,565
131,025
129,713
127,563
124,517
120,539
115,589
109,618
102,606
94,566
85,511
75,467
64,461
52,505
39,659
26,028
11,731
-3,082
-18,284
-33,78
-49,463
-65,225
-80,952
-96,512
-111,804
-126,766
-141,323
-155,406
-168,936
-181,813
-193,98
-205,429
-216,159
-226,193
-235,548
-244,222
-252,243
-259,655
-266,516
-272,902
-278,864
-284,423
-289,612
-294,468
-299,038
-303,391
-307,565
-311,571
-315,419
-319,109
-322,647
-326,045
-329,292
-332,356
-335,201
-337,782
-340,069
-342,057
-343,736
-345,096
-346,125
-346,805
-347,132
-347,121
-346,779
-346,119
-345,15
-343,882
-342,333
-340,539
-338,532
-336,35
-334,023
-331,57
-329,012
-326,365
-323,646
-320,869
-318,044
-315,173
-312,261
-309,314
-306,339
-303,344
-300,33
-297,298
-294,246
-291,174
-288,08
-284,967
-281,835
-278,684
-275,516
-272,335
-269,144
-265,947
-262,749
-259,551
-256,355
-253,163
-249,976
-246,796
-243,623
-240,46
-237,306
-234,165
-231,039
-227,929
-224,84
-221,774
-218,733
-215,721
-212,741
-209,796
-206,891
-204,028
-201,213
-198,448
-195,738
-193,088
-190,5
-187,978
-185,525
-183,145
-180,839
-178,61
-176,46
-174,39
-172,402
-170,497
-168,675
-166,937
-165,283
-163,713
-162,227
-160,825
-159,504
-158,264
-157,103
-156,019
-155,009
-154,071
-153,202
-152,398
-151,657
-150,973
-150,343
-149,762
-149,226
-148,73
-148,268
-147,836
-147,428
-147,041
-146,668
-146,304
-145,946
-145,588
-145,227
-144,857
-144,475
-144,077
-143,659
-143,217
-142,75
-142,253
-141,725
-141,162
-140,562
-139,923
-139,244
-138,522
-137,755
-136,943
-136,085
-135,179
-134,224
-133,222
-132,171
-131,072
-129,925
-128,732
-127,493
-126,21
-124,883
-123,514
-122,106
-120,658
-119,174
-117,656
-116,104
-114,522
-112,912
-111,274
-109,612
-107,928
-106,222
-104,498
-102,758
-101,003
-99,236
-97,46
-95,676
-93,888
-92,097
-90,306
-88,518
-86,735
-84,959
-83,193
-81,438
-79,697
-77,972
-76,264
-74,575
-72,908
-71,262
-69,64
-68,042
-66,47
-64,924
-63,405
-61,913
-60,45
-59,015
-57,609
-56,232
-54,884
-53,565
-52,275
-51,013
-49,779
-48,572
-47,39
-46,233
-45,099
-43,986
-42,893
-41,818
-40,759
-39,714
-38,681
-37,658
-36,644
-35,635
-34,631
-33,629
-32,626
-31,623
-30,616
-29,606
-28,589
-27,566
-26,535
-25,495
-24,445
-23,384
-22,313
-21,229
-20,134
-19,026
-17,906
-16,774
-15,63
-14,476
-13,312
-12,14
-10,96
-9,774
-8,583
-7,389
-6,193
-4,998
-3,805
-2,616
-1,433
-0,259
0,906
2,058
3,197
4,32
5,427
6,515
7,584
8,632
9,659
10,663
11,643
12,598
13,528
14,432
15,31
16,161
16,985
17,783
18,555
19,302
20,023
20,72
21,394
22,045
22,675
23,284
23,874
24,447
25,004
25,547
26,079
26,602
27,119
27,631
28,142
28,654
29,169
29,691
30,221
30,763
31,321
31,896
32,493
33,116
33,767
34,45
35,169
35,927
36,727
37,573
38,467
39,412
40,413
41,472
42,593
43,779
45,032
46,354
47,749
49,217
50,76
52,378
54,07
55,835
57,671
59,575
61,545
63,578
65,669
67,814
70,009
72,25
74,531
76,848
79,192
81,555
83,928
86,304
88,671
91,02
93,341
95,621
97,852
100,025
102,128
104,15
106,076
107,888
109,57
111,11
112,497
113,726
114,797
115,71
116,477
117,116
117,644
118,082
118,446
118,747
118,999
119,223
119,441
119,69
120
120,39
120,878
121,465
122,133
122,86
123,606
124,306
124,893
125,289
125,434
125,285
124,806
123,961
122,684
120,892
118,525
115,544
111,948
107,795
103,13
97,994
92,592
87,137
81,854
77,057
72,871
69,357
66,801
65,458
65,324
66,55
69,194
73,111
78,671
86,106
95,055
105,436
117,505
131,317
147,239
165,692
186,127
208,289
232,636
258,955
286,592
314,691
341,575
365,734
386,777
404,06
416,439
423,392
424,556
420,055
411,198
399,068
383,937
366,141
346,135
324,335
301,699
279,087
256,45
233,917
212,055
191,607
173,611
158,768
146,889
137,407
130,164
125,03
121,756
119,895
118,596
117,265
115,964
115,164
115,177
116,069
117,777
120,23
123,552
127,79
132,687
137,757
142,575
146,913
150,695
153,951
156,667
158,802
160,396
161,552
162,39
163,01
163,466
163,768
163,954
164,103
164,306
164,663
165,245
166,079
167,182
168,555
170,188
172,061
174,141
176,38
178,738
181,178
183,672
186,199
188,733
191,241
193,684
196,02
198,212
200,243
202,102
203,787
205,304
206,669
207,907
209,053
210,136
211,179
212,201
213,208
214,203
215,188
216,162
217,134
218,12
219,136
220,194
221,301
222,456
223,651
224,87
226,09
227,286
228,44
229,546
230,614
231,674
232,76
233,919
235,177
236,537
238,007
239,592
241,301
243,151
245,162
247,354
249,76
252,425
255,382
258,66
262,26
266,158
270,323
274,711
279,301
284,092
289,072
294,216
299,494
304,863
310,277
315,695
321,047
326,234
331,164
335,738
339,871
343,5
346,549
348,935
350,571
351,35
351,191
350,039
347,842
344,565
340,179
334,658
328,008
320,271
311,492
301,723
291,028
279,464
267,119
254,106
240,538
226,53
212,181
197,567
182,763
167,839
152,858
137,878
122,939
108,061
93,268
78,586
64,028
49,607
35,312
21,111
6,984
-7,084
-21,099
-35,048
-48,923
-62,711
-76,39
-89,934
-103,311
-116,486
-129,431
-142,123
-154,537
-166,644
-178,41
-189,793
-200,763
-211,295
-221,37
-230,976
-240,105
-248,749
-256,91
-264,596
-271,816
-278,579
-284,892
-290,763
-296,2
-301,215
-305,819
-310,029
-313,857
-317,316
-320,42
-323,183
-325,619
-327,744
-329,569
-331,106
-332,368
-333,369
-334,121
-334,64
-334,938
-335,029
-334,926
-334,642
-334,189
-333,58
-332,824
-331,932
-330,912
-329,774
-328,526
-327,174
-325,726
-324,188
-322,566
-320,866
-319,092
-317,25
-315,345
-313,38
-311,36
-309,289
-307,17
-305,006
-302,801
-300,556
-298,275
-295,96
-293,612
-291,235
-288,829
-286,398
-283,942
-281,464
-278,965
-276,447
-273,911
-271,36
-268,795
-266,218
-263,631
-261,036
-258,436
-255,833
-253,229
-250,627
-248,029
-245,437
-242,853
-240,279
-237,717
-235,169
-232,635
-230,119
-227,622
-225,144
-222,688
-220,256
-217,848
-215,465
-213,109
-210,782
-208,483
-206,214
-203,976
-201,77
-199,595
-197,453
-195,345
-193,271
-191,23
-189,225
-187,253
-185,316
-183,414
-181,545
-179,709
-177,907
-176,137
-174,4
-172,694
-171,019
-169,374
-167,759
-166,173
-164,615
-163,085
-161,581
-160,103
-158,649
-157,219
-155,811
-154,425
-153,059
-151,713
-150,385
-149,074
-147,778
-146,496
-145,228
-143,97
-142,723
-141,485
-140,254
-139,03
-137,81
-136,593
-135,379
-134,167
-132,954
-131,74
-130,524
-129,304
-128,081
-126,853
-125,62
-124,381
-123,136
-121,884
-120,625
-119,36
-118,087
-116,809
-115,523
-114,232
-112,935
-111,634
-110,328
-109,019
-107,707
-106,394
-105,081
-103,768
-102,457
-101,15
-99,848
-98,552
-97,263
-95,984
-94,716
-93,462
-92,222
-90,998
-89,792
-88,606
-87,442
-86,299
-85,18
-84,086
-83,018
-81,976
-80,961
-79,974
-79,014
-78,083
-77,179
-76,304
-75,456
-74,635
-73,841
-73,072
-72,329
-71,611
-70,916
-70,244
-69,593
-68,964
-68,353
-67,761
-67,184
-66,623
-66,074
-65,536
-65,007
-64,484
-63,967
-63,454
-62,941
-62,429
-61,914
-61,397
-60,874
-60,346
-59,811
-59,268
-58,717
-58,156
-57,587
-57,007
-56,418
-55,819
-55,211
-54,593
-53,965
-53,327
-52,68
-52,024
-51,358
-50,683
-49,999
-49,308
-48,608
-47,901
-47,188
-46,469
-45,746
-45,019
-44,289
-43,558
-42,825
-42,093
-41,361
-40,632
-39,904
-39,18
-38,459
-37,741
-37,028
-36,32
-35,616
-34,916
-34,221
-33,531
-32,846
-32,166
-31,492
-30,824
-30,163
-29,51
-28,866
-28,231
-27,606
-26,992
-26,391
-25,803
-25,229
-24,669
-24,126
-23,599
-23,089
-22,597
-22,125
-21,672
-21,239
-20,828
-20,438
-20,07
-19,726
-19,406
-19,11
-18,84
-18,596
-18,377
-18,186
-18,02
-17,881
-17,766
-17,676
-17,607
-17,559
-17,528
-17,512
-17,508
-17,514
-17,525
-17,538
-17,549
-17,553
-17,548
-17,528
-17,489
-17,425
-17,333
-17,208
-17,045
-16,84
-16,587
-16,283
-15,923
-15,502
-15,015
-14,46
-13,83
-13,122
-12,333
-11,461
-10,503
-9,458
-8,325
-7,105
-5,801
-4,416
-2,953
-1,416
0,19
1,861
3,589
5,369
7,197
9,065
10,967
12,894
14,835
16,781
18,722
20,647
22,545
24,405
26,214
27,964
29,643
31,243
32,751
34,152
35,427
36,559
37,539
38,358
39,013
39,505
39,84
40,031
40,101
40,072
39,966
39,802
39,59
39,349
39,099
38,866
38,684
38,584
38,582
38,692
38,912
39,222
39,599
39,999
40,348
40,577
40,622
40,419
39,933
39,121
37,932
36,318
34,225
31,605
28,45
24,761
20,579
15,992
11,095
6,019
0,939
-3,978
-8,546
-12,555
-15,823
-18,151
-19,31
-19,099
-17,284
-13,605
-7,947
-0,321
9,13
20,099
32,316
45,627
59,863
74,814
90,498
107,102
124,963
144,646
166,445
190,157
215,229
240,935
266,12
289,426
309,593
325,015
334,323
336,84
332,38
321,221
304,349
282,907
257,627
229,783
200,838
172,007
144,593
119,461
96,745
76,679
60,05
47,154
37,915
31,975
28,299
26,155
25,366
25,529
25,907
26,028
25,566
24,553
23,649
23,238
23,327
24,007
25,327
27,233
29,712
32,549
35,264
37,575
39,359
40,533
41,148
41,26
40,89
40,143
39,167
38,067
36,935
35,838
34,817
33,954
33,324
32,971
32,941
33,247
33,897
34,897
36,231
37,864
39,762
41,885
44,2
46,684
49,305
52,029
54,821
57,64
60,455
63,246
65,993
68,684
71,314
73,878
76,38
78,836
81,257
83,651
86,029
88,394
90,756
93,127
95,517
97,937
100,394
102,897
105,456
108,082
110,785
113,574
116,459
119,446
122,545
125,766
129,12
132,614
136,252
140,039
143,981
148,087
152,367
156,823
161,454
166,253
171,216
176,332
181,587
186,958
192,413
197,917
203,446
208,984
214,522
220,047
225,544
230,997
236,39
241,718
246,981
252,172
257,278
262,29
267,205
272,039
276,827
281,592
286,336
291,039
295,666
300,184
304,557
308,737
312,663
316,252
319,429
322,135
324,326
325,959
326,979
327,31
326,858
325,554
323,357
320,252
316,241
311,33
305,54
298,916
291,533
283,493
274,886
265,779
256,228
246,29
236,033
225,548
214,935
204,271
193,619
183,031
172,55
162,223
152,082
142,134
132,367
122,748
113,262
103,913
94,712
85,672
76,801
68,096
59,557
51,193
43,02
35,048
27,289
19,747
12,436
5,379
-1,393
-7,846
-13,955
-19,707
-25,096
-30,117
-34,769
-39,05
-42,966
-46,53
-49,755
-52,65
-55,227
-57,495
-59,468
-61,162
-62,597
-63,793
-64,769
-65,543
-66,13
-66,549
-66,815
-66,944
-66,947
-66,837
-66,624
-66,322
-65,943
-65,498
-65
-64,458
-63,882
-63,283
-62,668
-62,045
-61,42
-60,798
-60,184
-59,582
-58,996
-58,426
-57,877
-57,348
-56,841
-56,356
-55,894
-55,453
-55,033
-54,634
-54,254
-53,891
-53,546
-53,217
-52,904
-52,604
-52,319
-52,048
-51,791
-51,548
-51,319
-51,105
-50,905
-50,722
-50,555
-50,406
-50,275
-50,163
-50,072
-50,004
-49,959
-49,939
-49,946
-49,981
-50,045
-50,141
-50,268
-50,429
-50,625
-50,856
-51,123
-51,427
-51,769
-52,149
-52,568
-53,024
-53,518
-54,048
-54,614
-55,215
-55,849
-56,513
-57,207
-57,927
-58,671
-59,437
-60,22
-61,02
-61,832
-62,653
-63,482
-64,313
-65,146
-65,976
-66,802
-67,62
-68,429
-69,226
-70,008
-70,774
-71,523
-72,251
-72,959
-73,643
-74,304
-74,939
-75,548
-76,129
-76,683
-77,207
-77,703
-78,17
-78,608
-79,017
-79,397
-79,75
-80,075
-80,375
-80,65
-80,901
-81,129
-81,336
-81,524
-81,692
-81,844
-81,979
-82,099
-82,205
-82,298
-82,379
-82,448
-82,506
-82,554
-82,592
-82,62
-82,64
-82,651
-82,655
-82,651
-82,641
-82,625
-82,603
-82,576
-82,545
-82,51
-82,472
-82,431
-82,387
-82,341
-82,293
-82,243
-82,191
-82,138
-82,082
-82,025
-81,967
-81,907
-81,845
-81,783
-81,721
-81,659
-81,597
-81,538
-81,481
-81,428
-81,379
-81,337
-81,301
-81,273
-81,254
-81,244
-81,245
-81,257
-81,28
-81,316
-81,363
-81,424
-81,496
-81,582
-81,68
-81,792
-81,916
-82,053
-82,202
-82,364
-82,539
-82,727
-82,926
-83,138
-83,36
-83,594
-83,837
-84,09
-84,35
-84,617
-84,889
-85,164
-85,441
-85,717
-85,99
-86,259
-86,522
-86,776
-87,021
-87,253
-87,471
-87,675
-87,862
-88,032
-88,183
-88,315
-88,426
-88,516
-88,584
-88,629
-88,652
-88,651
-88,627
-88,578
-88,504
-88,406
-88,283
-88,135
-87,962
-87,764
-87,543
-87,298
-87,032
-86,745
-86,438
-86,114
-85,774
-85,42
-85,053
-84,676
-84,289
-83,896
-83,496
-83,093
-82,688
-82,282
-81,876
-81,471
-81,069
-80,67
-80,275
-79,884
-79,499
-79,119
-78,745
-78,379
-78,02
-77,67
-77,33
-76,999
-76,68
-76,372
-76,076
-75,791
-75,518
-75,255
-75,002
-74,76
-74,526
-74,302
-74,085
-73,875
-73,672
-73,474
-73,281
-73,091
-72,903
-72,715
-72,527
-72,337
-72,146
-71,95
-71,751
-71,547
-71,336
-71,12
-70,894
-70,658
-70,409
-70,146
-69,865
-69,564
-69,24
-68,889
-68,51
-68,101
-67,662
-67,19
-66,683
-66,141
-65,563
-64,946
-64,29
-63,589
-62,84
-62,041
-61,19
-60,289
-59,336
-58,33
-57,272
-56,165
-55,012
-53,819
-52,585
-51,307
-49,981
-48,61
-47,203
-45,773
-44,33
-42,883
-41,442
-40,021
-38,64
-37,313
-36,043
-34,823
-33,645
-32,508
-31,421
-30,402
-29,465
-28,618
-27,855
-27,171
-26,573
-26,063
-25,637
-25,273
-24,939
-24,616
-24,31
-24,048
-23,847
-23,71
-23,624
-23,57
-23,543
-23,54
-23,564
-23,612
-23,659
-23,688
-23,703
-23,735
-23,83
-24,028
-24,337
-24,746
-25,276
-25,961
-26,844
-27,974
-29,366
-31,03
-32,986
-35,271
-37,94
-41,032
-44,556
-48,478
-52,738
-57,253
-61,943
-66,732
-71,486
-76,061
-80,311
-84,073
-87,208
-89,581
-91,014
-91,293
-90,212
-87,55
-83,089
-76,756
-68,591
-58,742
-47,485
-35,061
-21,648
-7,437
7,34
22,68
38,781
55,96
74,714
95,229
117,248
140,344
163,944
187,098
208,674
227,432
241,772
250,501
253,036
248,988
238,428
221,947
200,189
174,009
144,923
114,361
83,644
54,347
27,523
3,825
-15,886
-31,046
-41,729
-48,149
-50,969
-51,445
-50,389
-48,411
-46,386
-44,859
-44,062
-44,186
-44,924
-45,562
-45,765
-45,337
-44,023
-41,886
-39,057
-35,622
-31,932
-28,435
-25,365
-22,878
-21,067
-19,861
-19,205
-19,056
-19,285
-19,763
-20,4
-21,105
-21,817
-22,477
-23,001
-23,319
-23,381
-23,146
-22,599
-21,732
-20,541
-19,048
-17,282
-15,276
-13,064
-10,67
-8,115
-5,428
-2,638
0,223
3,114
6,01
8,893
11,744
14,556
17,325
20,051
22,744
25,42
28,091
30,768
33,461
36,179
38,933
41,734
44,594
47,525
50,535
53,633
56,828
60,125
63,533
67,058
70,706
74,482
78,393
82,445
86,647
91,005
95,524
100,21
105,064
110,086
115,277
120,637
126,168
131,873
137,747
143,782
149,972
156,299
162,743
169,279
175,873
182,487
189,093
195,667
202,19
208,655
215,054
221,376
227,613
233,748
239,763
245,645
251,374
256,931
262,312
267,518
272,568
277,493
282,303
286,992
291,542
295,908
300,041
303,887
307,378
310,463
313,098
315,244
316,884
318,011
318,608
318,647
318,074
316,816
314,822
312,059
308,509
304,185
299,112
293,33
286,909
279,915
272,405
264,419
255,973
247,064
237,684
227,853
217,621
207,07
196,277
185,321
174,279
163,221
152,222
141,333
130,575
119,962
109,508
99,25
89,253
79,602
70,394
61,702
53,569
46,015
39,045
32,648
26,8
21,454
16,542
12,018
7,86
4,058
0,61
-2,505
-5,329
-7,915
-10,329
-12,626
-14,842
-17,012
-19,158
-21,287
-23,39
-25,437
-27,374
-29,166
-30,797
-32,26
-33,563
-34,707
-35,686
-36,493
-37,125
-37,577
-37,85
-37,941
-37,85
-37,586
-37,165
-36,617
-35,982
-35,29
-34,563
-33,818
-33,066
-32,316
-31,576
-30,852
-30,142
-29,448
-28,771
-28,115
-27,486
-26,886
-26,315
-25,77
-25,245
-24,739
-24,248
-23,771
-23,307
-22,855
-22,416
-21,99
-21,583
-21,195
-20,83
-20,486
-20,164
-19,864
-19,585
-19,326
-19,086
-18,864
-18,658
-18,467
-18,292
-18,133
-17,988
-17,859
-17,745
-17,647
-17,564
-17,498
-17,447
-17,412
-17,394
-17,392
-17,406
-17,437
-17,485
-17,549
-17,63
-17,727
-17,84
-17,968
-18,111
-18,267
-18,436
-18,618
-18,812
-19,019
-19,237
-19,469
-19,714
-19,974
-20,248
-20,538
-20,845
-21,168
-21,508
-21,866
-22,244
-22,64
-23,056
-23,491
-23,947
-24,424
-24,921
-25,439
-25,977
-26,535
-27,114
-27,712
-28,33
-28,967
-29,623
-30,297
-30,989
-31,698
-32,424
-33,166
-33,921
-34,69
-35,469
-36,258
-37,054
-37,856
-38,66
-39,464
-40,266
-41,063
-41,854
-42,634
-43,402
-44,155
-44,891
-45,608
-46,304
-46,977
-47,626
-48,249
-48,845
-49,414
-49,955
-50,466
-50,948
-51,399
-51,821
-52,213
-52,575
-52,907
-53,21
-53,484
-53,732
-53,953
-54,15
-54,324
-54,477
-54,612
-54,729
-54,832
-54,923
-55,004
-55,078
-55,148
-55,215
-55,281
-55,35
-55,423
-55,502
-55,588
-55,682
-55,786
-55,9
-56,026
-56,164
-56,314
-56,477
-56,652
-56,841
-57,042
-57,256
-57,483
-57,721
-57,971
-58,231
-58,5
-58,778
-59,064
-59,355
-59,65
-59,949
-60,249
-60,548
-60,845
-61,139
-61,427
-61,709
-61,982
-62,246
-62,5
-62,742
-62,972
-63,189
-63,394
-63,584
-63,762
-63,925
-64,076
-64,212
-64,336
-64,447
-64,545
-64,631
-64,706
-64,769
-64,822
-64,864
-64,898
-64,923
-64,94
-64,951
-64,956
-64,956
-64,952
-64,946
-64,938
-64,929
-64,92
-64,913
-64,906
-64,902
-64,901
-64,903
-64,909
-64,919
-64,934
-64,953
-64,977
-65,006
-65,039
-65,079
-65,123
-65,173
-65,229
-65,291
-65,359
-65,434
-65,516
-65,606
-65,702
-65,807
-65,919
-66,04
-66,168
-66,306
-66,452
-66,607
-66,771
-66,945
-67,13
-67,325
-67,53
-67,747
-67,975
-68,214
-68,464
-68,724
-68,994
-69,273
-69,561
-69,857
-70,159
-70,466
-70,777
-71,09
-71,403
-71,714
-72,02
-72,318
-72,607
-72,882
-73,142
-73,384
-73,605
-73,803
-73,973
-74,113
-74,221
-74,292
-74,324
-74,313
-74,256
-74,151
-73,995
-73,786
-73,523
-73,205
-72,832
-72,407
-71,929
-71,401
-70,825
-70,203
-69,538
-68,832
-68,089
-67,31
-66,5
-65,666
-64,811
-63,945
-63,074
-62,205
-61,348
-60,511
-59,702
-58,929
-58,2
-57,521
-56,903
-56,358
-55,904
-55,554
-55,318
-55,202
-55,209
-55,337
-55,58
-55,922
-56,338
-56,804
-57,296
-57,793
-58,282
-58,746
-59,166
-59,513
-59,756
-59,873
-59,853
-59,695
-59,407
-59,005
-58,525
-58,029
-57,607
-57,347
-57,33
-57,623
-58,278
-59,358
-60,924
-63,037
-65,749
-69,081
-73,027
-77,56
-82,631
-88,161
-94,023
-100,038
-105,977
-111,611
-116,733
-121,154
-124,663
-127,015
-127,95
-127,212
-124,625
-120,056
-113,359
-104,507
-93,564
-80,685
-66,248
-50,682
-34,24
-17,204
0,143
17,822
35,803
54,054
72,893
92,475
112,501
132,675
152,473
170,805
186,753
199,35
207,187
209,14
204,591
193,073
174,643
150,15
120,474
86,863
51,207
15,497
-18,266
-48,24
-73,069
-92,072
-104,838
-111,414
-112,468
-109,152
-103,096
-95,811
-88,511
-82,004
-76,796
-73,178
-71,163
-70,364
-69,995
-69,422
-68,243
-66,302
-63,697
-60,543
-56,97
-53,25
-49,79
-46,879
-44,669
-43,191
-42,314
-41,914
-41,891
-42,118
-42,458
-42,799
-43,038
-43,082
-42,892
-42,442
-41,707
-40,68
-39,345
-37,692
-35,736
-33,509
-31,047
-28,39
-25,57
-22,613
-19,552
-16,422
-13,26
-10,104
-6,981
-3,906
-0,891
2,055
4,925
7,715
10,431
13,085
15,691
18,26
20,799
23,319
25,83
28,348
30,886
33,458
36,076
38,752
41,497
44,321
47,234
50,245
53,362
56,592
59,945
63,431
67,058
70,837
74,778
78,89
83,182
87,657
92,318
97,17
102,213
107,452
112,886
118,509
124,31
130,277
136,395
142,645
149,003
155,438
161,916
168,408
174,881
181,318
187,698
193,998
200,194
206,262
212,183
217,954
223,574
229,041
234,36
239,532
244,565
249,49
254,322
259,072
263,75
268,338
272,814
277,161
281,355
285,367
289,168
292,698
295,883
298,66
300,954
302,694
303,81
304,202
303,788
302,499
300,263
297,047
292,84
287,626
281,405
274,188
265,981
256,832
246,824
236,034
224,564
212,513
199,981
187,106
174,026
160,875
147,8
134,916
122,308
110,072
98,289
87,038
76,416
66,476
57,234
48,707
40,887
33,764
27,333
21,548
16,347
11,659
7,394
3,488
-0,098
-3,413
-6,502
-9,414
-12,217
-14,954
-17,636
-20,282
-22,895
-25,481
-28,054
-30,6
-33,086
-35,474
-37,714
-39,776
-41,648
-43,319
-44,776
-46,009
-46,999
-47,74
-48,247
-48,528
-48,595
-48,458
-48,123
-47,611
-46,952
-46,18
-45,33
-44,429
-43,496
-42,546
-41,595
-40,656
-39,741
-38,856
-38
-37,174
-36,381
-35,625
-34,908
-34,23
-33,585
-32,97
-32,379
-31,809
-31,257
-30,721
-30,198
-29,686
-29,185
-28,696
-28,219
-27,754
-27,3
-26,856
-26,419
-25,989
-25,563
-25,14
-24,719
-24,299
-23,879
-23,458
-23,039
-22,621
-22,204
-21,79
-21,38
-20,976
-20,58
-20,194
-19,821
-19,463
-19,123
-18,804
-18,508
-18,237
-17,995
-17,783
-17,602
-17,455
-17,342
-17,265
-17,226
-17,224
-17,261
-17,338
-17,454
-17,611
-17,808
-18,045
-18,322
-18,638
-18,994
-19,386
-19,815
-20,279
-20,776
-21,304
-21,861
-22,443
-23,049
-23,675
-24,318
-24,975
-25,642
-26,318
-26,998
-27,68
-28,361
-29,037
-29,708
-30,37
-31,02
-31,658
-32,28
-32,884
-33,47
-34,035
-34,579
-35,099
-35,596
-36,067
-36,512
-36,931
-37,322
-37,685
-38,02
-38,326
-38,603
-38,851
-39,071
-39,263
-39,427
-39,566
-39,679
-39,767
-39,833
-39,876
-39,898
-39,901
-39,886
-39,854
-39,807
-39,746
-39,673
-39,589
-39,496
-39,395
-39,287
-39,174
-39,057
-38,937
-38,816
-38,695
-38,575
-38,457
-38,344
-38,237
-38,136
-38,043
-37,96
-37,887
-37,826
-37,778
-37,743
-37,722
-37,717
-37,727
-37,753
-37,796
-37,856
-37,932
-38,025
-38,135
-38,261
-38,402
-38,559
-38,731
-38,917
-39,116
-39,33
-39,555
-39,793
-40,043
-40,303
-40,573
-40,852
-41,14
-41,435
-41,738
-42,047
-42,363
-42,683
-43,009
-43,339
-43,672
-44,009
-44,349
-44,692
-45,038
-45,385
-45,736
-46,09
-46,446
-46,807
-47,171
-47,54
-47,914
-48,294
-48,681
-49,074
-49,473
-49,881
-50,296
-50,718
-51,149
-51,588
-52,033
-52,486
-52,944
-53,407
-53,874
-54,341
-54,808
-55,271
-55,73
-56,18
-56,62
-57,047
-57,457
-57,846
-58,213
-58,552
-58,86
-59,133
-59,366
-59,556
-59,698
-59,789
-59,824
-59,799
-59,711
-59,557
-59,333
-59,037
-58,666
-58,218
-57,691
-57,083
-56,395
-55,626
-54,778
-53,854
-52,858
-51,795
-50,669
-49,487
-48,254
-46,977
-45,662
-44,315
-42,942
-41,55
-40,146
-38,739
-37,342
-35,966
-34,619
-33,311
-32,049
-30,843
-29,704
-28,641
-27,659
-26,766
-25,972
-25,291
-24,746
-24,349
-24,107
-24,021
-24,084
-24,291
-24,637
-25,111
-25,693
-26,362
-27,094
-27,873
-28,691
-29,531
-30,368
-31,165
-31,875
-32,472
-32,953
-33,323
-33,602
-33,808
-33,962
-34,093
-34,24
-34,454
-34,795
-35,327
-36,115
-37,221
-38,673
-40,542
-42,938
-45,853
-49,197
-52,745
-56,106
-59,062
-61,616
-63,742
-65,412
-66,687
-67,611
-68,543
-70,201
-72,773
-75,912
-79,031
-81,222
-81,731
-80,119
-75,559
-66,846
-53,471
-35,559
-13,85
10,172
35,319
60,815
85,548
108,22
127,896
143,914
156,268
165,661
172,575
177,349
180,382
181,812
181,73
180,22
176,869
171,074
162,32
149,831
133,196
112,782
89,162
63,275
36,636
10,494
-13,884
-34,721
-50,776
-61,628
-67,222
-68,296
-66,23
-61,97
-56,426
-50,887
-46,224
-42,916
-41,249
-40,825
-40,834
-40,865
-40,657
-39,906
-38,58
-36,685
-34,231
-31,524
-29,01
-26,924
-25,394
-24,457
-23,998
-23,931
-24,202
-24,689
-25,256
-25,803
-26,229
-26,457
-26,464
-26,226
-25,718
-24,929
-23,843
-22,448
-20,76
-18,811
-16,636
-14,268
-11,736
-9,064
-6,282
-3,423
-0,521
2,39
5,288
8,159
10,992
13,777
16,506
19,172
21,781
24,345
26,874
29,377
31,861
34,331
36,798
39,276
41,778
44,313
46,893
49,525
52,222
54,992
57,844
60,785
63,821
66,957
70,202
73,566
77,057
80,684
84,455
88,38
92,466
96,719
101,145
105,74
110,506
115,441
120,547
125,824
131,27
136,872
142,619
148,497
154,489
160,572
166,715
172,875
179,019
185,125
191,171
197,147
203,037
208,821
214,483
220,008
225,383
230,597
235,633
240,467
245,091
249,509
253,738
257,815
261,751
265,533
269,142
272,549
275,722
278,628
281,217
283,429
285,219
286,557
287,425
287,816
287,694
287,003
285,678
283,634
280,817
277,203
272,766
267,493
261,394
254,496
246,854
238,549
229,626
220,1
209,986
199,301
188,102
176,474
164,508
152,311
139,986
127,63
115,36
103,285
91,479
79,992
68,849
58,061
47,679
37,786
28,453
19,739
11,67
4,246
-2,527
-8,66
-14,183
-19,153
-23,651
-27,752
-31,498
-34,91
-38,001
-40,783
-43,298
-45,609
-47,76
-49,786
-51,712
-53,555
-55,339
-57,08
-58,771
-60,38
-61,858
-63,169
-64,3
-65,252
-66,03
-66,635
-67,06
-67,297
-67,353
-67,237
-66,958
-66,524
-65,938
-65,209
-64,359
-63,421
-62,433
-61,424
-60,414
-59,416
-58,443
-57,507
-56,619
-55,783
-54,999
-54,264
-53,579
-52,947
-52,371
-51,851
-51,382
-50,958
-50,572
-50,221
-49,899
-49,603
-49,33
-49,077
-48,84
-48,619
-48,417
-48,231
-48,061
-47,906
-47,763
-47,631
-47,509
-47,397
-47,292
-47,194
-47,102
-47,018
-46,941
-46,872
-46,813
-46,765
-46,73
-46,709
-46,705
-46,72
-46,757
-46,819
-46,907
-47,024
-47,174
-47,358
-47,578
-47,837
-48,136
-48,477
-48,861
-49,289
-49,761
-50,277
-50,838
-51,443
-52,092
-52,783
-53,517
-54,29
-55,103
-55,952
-56,835
-57,75
-58,694
-59,664
-60,656
-61,667
-62,693
-63,73
-64,775
-65,822
-66,869
-67,911
-68,943
-69,961
-70,962
-71,94
-72,893
-73,816
-74,706
-75,559
-76,372
-77,142
-77,867
-78,543
-79,17
-79,744
-80,265
-80,731
-81,143
-81,5
-81,801
-82,048
-82,241
-82,381
-82,471
-82,511
-82,504
-82,453
-82,359
-82,226
-82,057
-81,855
-81,623
-81,367
-81,088
-80,792
-80,483
-80,165
-79,841
-79,518
-79,198
-78,886
-78,587
-78,305
-78,044
-77,807
-77,599
-77,424
-77,283
-77,18
-77,118
-77,098
-77,122
-77,191
-77,306
-77,467
-77,674
-77,927
-78,226
-78,568
-78,954
-79,38
-79,844
-80,345
-80,88
-81,444
-82,036
-82,651
-83,286
-83,936
-84,599
-85,268
-85,941
-86,612
-87,277
-87,932
-88,572
-89,193
-89,791
-90,361
-90,901
-91,407
-91,877
-92,307
-92,697
-93,044
-93,348
-93,607
-93,823
-93,995
-94,124
-94,21
-94,256
-94,263
-94,234
-94,17
-94,075
-93,952
-93,803
-93,633
-93,445
-93,243
-93,03
-92,81
-92,588
-92,367
-92,151
-91,944
-91,749
-91,57
-91,41
-91,27
-91,153
-91,059
-90,989
-90,944
-90,924
-90,926
-90,95
-90,993
-91,053
-91,127
-91,21
-91,3
-91,39
-91,477
-91,555
-91,619
-91,664
-91,683
-91,671
-91,622
-91,53
-91,39
-91,196
-90,942
-90,624
-90,235
-89,772
-89,23
-88,606
-87,897
-87,102
-86,222
-85,257
-84,208
-83,079
-81,874
-80,595
-79,249
-77,84
-76,374
-74,855
-73,293
-71,695
-70,07
-68,429
-66,782
-65,141
-63,518
-61,923
-60,372
-58,875
-57,444
-56,088
-54,82
-53,655
-52,613
-51,707
-50,949
-50,343
-49,895
-49,602
-49,462
-49,46
-49,57
-49,767
-50,024
-50,316
-50,628
-50,939
-51,222
-51,447
-51,578
-51,592
-51,481
-51,249
-50,899
-50,445
-49,915
-49,364
-48,877
-48,545
-48,443
-48,635
-49,172
-50,11
-51,515
-53,445
-55,94
-59,013
-62,637
-66,761
-71,327
-76,254
-81,417
-86,64
-91,682
-96,294
-100,252
-103,35
-105,383
-106,129
-105,356
-102,857
-98,477
-92,119
-83,736
-73,317
-60,88
-46,495
-30,315
-12,582
6,38
26,209
46,558
67,082
87,397
107,065
125,637
142,681
157,832
170,794
181,298
189,099
194,001
195,886
194,74
190,657
183,807
174,408
162,7
148,953
133,51
116,794
99,249
81,317
63,4
45,858
29,057
13,377
-0,864
-13,418
-24,126
-32,918
-39,766
-44,675
-47,691
-48,901
-48,463
-46,594
-43,53
-39,508
-34,76
-29,503
-23,981
-18,463
-13,167
-8,257
-3,848
-0
3,237
5,822
7,752
9,056
9,794
10,049
9,909
9,454
8,775
7,965
7,13
6,392
5,839
5,527
5,492
5,746
6,297
7,156
8,309
9,725
11,372
13,213
15,217
17,36
19,608
21,923
24,266
26,594
28,878
31,101
33,255
35,333
37,336
39,266
41,131
42,947
44,729
46,489
48,236
49,981
51,735
53,515
55,336
57,214
59,164
61,201
63,338
65,59
67,969
70,486
73,154
75,979
78,973
82,144
85,502
89,054
92,809
96,771
100,946
105,335
109,942
114,764
119,799
125,044
130,49
136,131
141,958
147,958
154,12
160,427
166,864
173,413
180,055
186,77
193,535
200,328
207,122
213,892
220,613
227,254
233,786
240,177
246,397
252,415
258,202
263,727
268,961
273,876
278,443
282,638
286,439
289,822
292,762
295,235
297,218
298,696
299,664
300,116
300,045
299,446
298,319
296,668
294,505
291,833
288,647
284,948
280,731
276,007
270,799
265,132
259,03
252,512
245,586
238,267
230,587
222,564
214,216
205,558
196,592
187,351
177,897
168,289
158,584
148,828
139,047
129,274
119,547
109,907
100,402
91,071
81,937
73,038
64,423
56,145
48,264
40,802
33,739
27,059
20,749
14,806
9,24
4,05
-0,779
-5,256
-9,391
-13,189
-16,646
-19,78
-22,623
-25,211
-27,588
-29,77
-31,74
-33,494
-35,031
-36,357
-37,487
-38,43
-39,182
-39,754
-40,166
-40,437
-40,592
-40,644
-40,593
-40,443
-40,193
-39,855
-39,455
-39,01
-38,536
-38,047
-37,553
-37,066
-36,605
-36,176
-35,78
-35,415
-35,081
-34,778
-34,511
-34,284
-34,096
-33,946
-33,831
-33,749
-33,698
-33,674
-33,674
-33,693
-33,724
-33,766
-33,816
-33,873
-33,935
-33,999
-34,064
-34,126
-34,185
-34,239
-34,287
-34,326
-34,355
-34,374
-34,383
-34,382
-34,372
-34,353
-34,327
-34,296
-34,261
-34,225
-34,189
-34,156
-34,129
-34,109
-34,101
-34,105
-34,124
-34,162
-34,22
-34,3
-34,404
-34,534
-34,692
-34,879
-35,096
-35,343
-35,622
-35,933
-36,275
-36,649
-37,055
-37,491
-37,959
-38,456
-38,981
-39,534
-40,112
-40,714
-41,338
-41,981
-42,642
-43,318
-44,007
-44,706
-45,413
-46,126
-46,842
-47,559
-48,275
-48,988
-49,695
-50,395
-51,087
-51,768
-52,437
-53,093
-53,735
-54,362
-54,973
-55,566
-56,141
-56,697
-57,234
-57,75
-58,245
-58,719
-59,172
-59,603
-60,012
-60,399
-60,765
-61,109
-61,432
-61,735
-62,017
-62,279
-62,521
-62,744
-62,948
-63,134
-63,301
-63,451
-63,583
-63,698
-63,795
-63,875
-63,936
-63,98
-64,006
-64,013
-64,003
-63,976
-63,931
-63,87
-63,792
-63,699
-63,591
-63,469
-63,333
-63,184
-63,023
-62,85
-62,666
-62,472
-62,269
-62,057
-61,837
-61,61
-61,377
-61,137
-60,893
-60,643
-60,39
-60,134
-59,876
-59,617
-59,36
-59,105
-58,854
-58,608
-58,37
-58,14
-57,919
-57,709
-57,51
-57,324
-57,15
-56,991
-56,846
-56,716
-56,601
-56,503
-56,42
-56,354
-56,304
-56,27
-56,254
-56,254
-56,271
-56,306
-56,359
-56,431
-56,521
-56,631
-56,76
-56,909
-57,077
-57,263
-57,468
-57,69
-57,928
-58,181
-58,449
-58,73
-59,024
-59,329
-59,644
-59,968
-60,3
-60,638
-60,98
-61,326
-61,672
-62,018
-62,362
-62,702
-63,036
-63,363
-63,68
-63,984
-64,273
-64,544
-64,794
-65,018
-65,214
-65,378
-65,506
-65,595
-65,642
-65,643
-65,596
-65,498
-65,346
-65,137
-64,869
-64,539
-64,146
-63,687
-63,161
-62,567
-61,906
-61,177
-60,381
-59,522
-58,6
-57,618
-56,58
-55,487
-54,345
-53,157
-51,926
-50,656
-49,352
-48,019
-46,665
-45,297
-43,923
-42,552
-41,192
-39,852
-38,543
-37,273
-36,053
-34,89
-33,793
-32,772
-31,839
-31,01
-30,3
-29,714
-29,26
-28,937
-28,745
-28,68
-28,728
-28,867
-29,071
-29,32
-29,592
-29,877
-30,159
-30,416
-30,623
-30,746
-30,761
-30,654
-30,42
-30,063
-29,594
-29,03
-28,416
-27,828
-27,344
-27,038
-26,969
-27,173
-27,692
-28,579
-29,892
-31,684
-33,991
-36,814
-40,131
-43,907
-48,085
-52,587
-57,284
-61,979
-66,45
-70,473
-73,859
-76,458
-78,125
-78,665
-77,85
-75,454
-71,298
-65,285
-57,4
-47,61
-35,847
-22,133
-6,656
10,167
27,802
45,85
64,142
82,569
100,881
118,766
135,985
152,685
169,242
185,764
201,97
217,177
230,652
241,809
250,03
254,184
253,006
245,628
231,589
211,319
185,804
156,047
123,44
90,081
58,047
29,168
5,156
-13,29
-26,196
-33,708
-36,648
-36,482
-34,448
-31,728
-29,605
-28,634
-28,919
-30,5
-32,87
-35,234
-37,17
-38,319
-38,297
-37,11
-34,915
-31,895
-28,508
-25,248
-22,358
-19,991
-18,244
-17,08
-16,47
-16,381
-16,682
-17,23
-17,934
-18,73
-19,579
-20,453
-21,274
-21,945
-22,398
-22,586
-22,49
-22,107
-21,432
-20,466
-19,23
-17,757
-16,081
-14,233
-12,235
-10,104
-7,861
-5,531
-3,15
-0,753
1,632
3,987
6,302
8,571
10,796
12,978
15,131
17,272
19,416
21,576
23,764
25,987
28,256
30,584
32,983
35,463
38,036
40,711
43,5
46,413
49,461
52,652
55,995
59,495
63,16
66,998
71,016
75,217
79,604
84,18
88,951
93,923
99,097
104,47
110,032
115,771
121,671
127,715
133,877
140,119
146,408
152,709
158,996
165,256
171,474
177,631
183,71
189,687
195,551
201,303
206,938
212,448
217,824
223,059
228,163
233,17
238,104
242,979
247,791
252,506
257,092
261,516
265,733
269,697
273,342
276,578
279,342
281,593
283,294
284,418
284,906
284,67
283,637
281,747
278,966
275,287
270,703
265,219
258,864
251,689
243,775
235,228
226,121
216,493
206,377
195,787
184,784
173,463
161,909
150,209
138,446
126,695
115,054
103,607
92,406
81,481
70,833
60,444
50,336
40,556
31,162
22,234
13,814
5,916
-1,44
-8,254
-14,541
-20,33
-25,686
-30,67
-35,311
-39,625
-43,606
-47,243
-50,55
-53,557
-56,297
-58,828
-61,188
-63,405
-65,515
-67,533
-69,461
-71,283
-72,957
-74,444
-75,729
-76,804
-77,676
-78,357
-78,851
-79,162
-79,297
-79,256
-79,037
-78,643
-78,071
-77,328
-76,43
-75,402
-74,278
-73,094
-71,873
-70,637
-69,401
-68,175
-66,97
-65,792
-64,643
-63,525
-62,444
-61,404
-60,413
-59,475
-58,59
-57,76
-56,981
-56,249
-55,562
-54,918
-54,314
-53,751
-53,226
-52,741
-52,297
-51,897
-51,539
-51,225
-50,953
-50,722
-50,53
-50,376
-50,258
-50,173
-50,119
-50,096
-50,101
-50,134
-50,193
-50,277
-50,386
-50,518
-50,672
-50,848
-51,045
-51,261
-51,496
-51,75
-52,021
-52,31
-52,616
-52,939
-53,278
-53,634
-54,006
-54,395
-54,798
-55,217
-55,649
-56,095
-56,554
-57,025
-57,509
-58,005
-58,512
-59,032
-59,562
-60,104
-60,657
-61,22
-61,792
-62,374
-62,965
-63,564
-64,171
-64,787
-65,411
-66,043
-66,682
-67,33
-67,985
-68,647
-69,316
-69,991
-70,672
-71,358
-72,048
-72,743
-73,44
-74,141
-74,843
-75,547
-76,252
-76,958
-77,662
-78,365
-79,065
-79,763
-80,457
-81,146
-81,83
-82,509
-83,181
-83,846
-84,502
-85,149
-85,785
-86,41
-87,02
-87,616
-88,195
-88,755
-89,297
-89,817
-90,315
-90,789
-91,237
-91,659
-92,053
-92,417
-92,751
-93,053
-93,322
-93,557
-93,758
-93,923
-94,051
-94,143
-94,197
-94,213
-94,19
-94,127
-94,023
-93,878
-93,692
-93,465
-93,196
-92,887
-92,537
-92,147
-91,719
-91,253
-90,75
-90,213
-89,643
-89,041
-88,409
-87,75
-87,065
-86,357
-85,628
-84,882
-84,119
-83,343
-82,555
-81,758
-80,955
-80,147
-79,337
-78,527
-77,72
-76,917
-76,122
-75,337
-74,563
-73,804
-73,062
-72,338
-71,633
-70,95
-70,289
-69,652
-69,04
-68,453
-67,893
-67,358
-66,85
-66,368
-65,912
-65,481
-65,074
-64,69
-64,327
-63,986
-63,664
-63,361
-63,074
-62,804
-62,549
-62,306
-62,076
-61,856
-61,645
-61,441
-61,242
-61,047
-60,853
-60,66
-60,466
-60,269
-60,069
-59,863
-59,65
-59,43
-59,2
-58,96
-58,709
-58,446
-58,17
-57,882
-57,581
-57,266
-56,94
-56,6
-56,249
-55,886
-55,511
-55,125
-54,728
-54,32
-53,901
-53,473
-53,035
-52,589
-52,134
-51,672
-51,204
-50,73
-50,252
-49,769
-49,283
-48,795
-48,305
-47,815
-47,325
-46,838
-46,354
-45,874
-45,4
-44,932
-44,473
-44,021
-43,578
-43,144
-42,72
-42,306
-41,902
-41,508
-41,125
-40,752
-40,391
-40,04
-39,7
-39,369
-39,048
-38,734
-38,426
-38,124
-37,825
-37,529
-37,232
-36,934
-36,632
-36,323
-36,005
-35,674
-35,328
-34,963
-34,574
-34,158
-33,711
-33,229
-32,709
-32,147
-31,539
-30,883
-30,175
-29,412
-28,591
-27,711
-26,767
-25,759
-24,685
-23,544
-22,335
-21,059
-19,718
-18,313
-16,849
-15,328
-13,755
-12,136
-10,475
-8,777
-7,048
-5,294
-3,52
-1,735
0,056
1,841
3,612
5,356
7,062
8,719
10,316
11,844
13,293
14,657
15,926
17,089
18,136
19,052
19,822
20,437
20,885
21,162
21,271
21,219
21,024
20,709
20,293
19,792
19,223
18,6
17,944
17,277
16,622
16,014
15,482
15,053
14,75
14,584
14,545
14,608
14,723
14,819
14,845
14,767
14,556
14,179
13,567
12,631
11,298
9,515
7,265
4,518
1,198
-2,684
-6,962
-11,32
-15,38
-18,886
-21,841
-24,287
-26,07
-27,096
-27,437
-27,426
-27,542
-27,845
-27,752
-26,426
-23,324
-18,068
-10,256
0,801
15,998
35,621
59,017
84,92
112,199
140,021
167,632
194,037
217,915
238,327
255,112
268,77
279,881
288,719
295,303
299,583
301,735
301,721
299,06
292,956
282,467
266,987
246,493
221,485
192,733
161,521
129,585
98,693
70,781
47,471
29,696
17,803
11,587
10,108
11,939
15,737
20,105
23,917
26,557
27,701
27,374
26,072
24,558
23,425
23,133
23,913
25,686
28,294
31,508
34,954
38,199
40,959
43,072
44,49
45,303
45,6
45,465
45,016
44,377
43,632
42,851
42,099
41,424
40,896
40,579
40,51
40,717
41,212
41,991
43,039
44,332
45,831
47,5
49,309
51,231
53,245
55,328
57,451
59,581
61,684
63,735
65,718
67,619
69,433
71,163
72,813
74,398
75,936
77,444
78,936
80,423
81,916
83,427
84,969
86,555
88,199
89,915
91,715
93,614
95,624
97,757
100,024
102,435
105
107,726
110,621
113,694
116,952
120,406
124,066
127,939
132,025
136,323
140,826
145,524
150,401
155,435
160,597
165,858
171,191
176,57
181,972
187,378
192,767
198,12
203,413
208,633
213,774
218,835
223,82
228,738
233,593
238,402
243,19
247,973
252,761
257,555
262,344
267,105
271,809
276,412
280,875
285,143
289,146
292,805
296,032
298,742
300,863
302,325
303,044
302,953
301,995
300,119
297,296
293,511
288,766
283,077
276,466
268,963
260,614
251,49
241,676
231,253
220,283
208,815
196,909
184,632
172,046
159,223
146,228
133,116
119,943
106,77
93,661
80,691
67,935
55,436
43,224
31,338
19,833
8,788
-1,726
-11,659
-20,969
-29,633
-37,631
-44,941
-51,559
-57,504
-62,812
-67,537
-71,752
-75,498
-78,809
-81,726
-84,299
-86,599
-88,696
-90,637
-92,457
-94,186
-95,851
-97,479
-99,087
-100,669
-102,205
-103,663
-104,999
-106,194
-107,233
-108,103
-108,793
-109,286
-109,566
-109,636
-109,504
-109,182
-108,676
-107,997
-107,152
-106,164
-105,064
-103,88
-102,649
-101,396
-100,139
-98,897
-97,683
-96,509
-95,383
-94,308
-93,279
-92,295
-91,356
-90,462
-89,613
-88,806
-88,034
-87,294
-86,579
-85,884
-85,206
-84,542
-83,887
-83,239
-82,598
-81,963
-81,335
-80,713
-80,096
-79,484
-78,873
-78,264
-77,656
-77,046
-76,434
-75,82
-75,203
-74,584
-73,965
-73,348
-72,734
-72,126
-71,527
-70,94
-70,368
-69,815
-69,283
-68,777
-68,301
-67,857
-67,449
-67,081
-66,756
-66,475
-66,243
-66,06
-65,93
-65,853
-65,832
-65,866
-65,957
-66,106
-66,312
-66,576
-66,898
-67,277
-67,711
-68,2
-68,742
-69,335
-69,977
-70,665
-71,395
-72,165
-72,972
-73,81
-74,677
-75,569
-76,48
-77,408
-78,347
-79,293
-80,241
-81,188
-82,129
-83,06
-83,977
-84,876
-85,754
-86,607
-87,431
-88,225
-88,984
-89,706
-90,389
-91,031
-91,63
-92,184
-92,691
-93,152
-93,564
-93,928
-94,242
-94,507
-94,722
-94,889
-95,006
-95,076
-95,098
-95,074
-95,005
-94,892
-94,737
-94,542
-94,308
-94,037
-93,731
-93,393
-93,024
-92,626
-92,202
-91,754
-91,284
-90,795
-90,289
-89,768
-89,234
-88,69
-88,137
-87,578
-87,016
-86,451
-85,886
-85,323
-84,764
-84,211
-83,666
-83,129
-82,604
-82,092
-81,594
-81,111
-80,646
-80,199
-79,771
-79,364
-78,978
-78,614
-78,273
-77,956
-77,662
-77,392
-77,147
-76,926
-76,729
-76,557
-76,409
-76,285
-76,184
-76,106
-76,05
-76,015
-76
-76,005
-76,029
-76,07
-76,127
-76,2
-76,286
-76,384
-76,494
-76,612
-76,739
-76,872
-77,011
-77,152
-77,296
-77,44
-77,584
-77,726
-77,865
-77,999
-78,127
-78,249
-78,363
-78,467
-78,561
-78,645
-78,716
-78,775
-78,821
-78,853
-78,871
-78,874
-78,863
-78,836
-78,794
-78,737
-78,665
-78,578
-78,476
-78,359
-78,228
-78,083
-77,925
-77,753
-77,569
-77,373
-77,165
-76,946
-76,716
-76,476
-76,227
-75,969
-75,703
-75,429
-75,149
-74,864
-74,574
-74,281
-73,984
-73,686
-73,388
-73,089
-72,792
-72,496
-72,204
-71,915
-71,63
-71,35
-71,076
-70,808
-70,547
-70,293
-70,046
-69,806
-69,575
-69,351
-69,134
-68,926
-68,724
-68,529
-68,34
-68,155
-67,974
-67,795
-67,616
-67,436
-67,253
-67,064
-66,867
-66,658
-66,435
-66,194
-65,932
-65,645
-65,33
-64,982
-64,598
-64,174
-63,707
-63,193
-62,628
-62,009
-61,333
-60,597
-59,798
-58,933
-58
-56,998
-55,925
-54,78
-53,564
-52,277
-50,921
-49,5
-48,015
-46,471
-44,871
-43,221
-41,524
-39,787
-38,014
-36,211
-34,384
-32,541
-30,692
-28,845
-27,012
-25,202
-23,427
-21,694
-20,017
-18,406
-16,868
-15,416
-14,057
-12,806
-11,681
-10,695
-9,858
-9,178
-8,655
-8,285
-8,061
-7,97
-7,99
-8,101
-8,279
-8,504
-8,761
-9,031
-9,293
-9,52
-9,672
-9,719
-9,645
-9,441
-9,116
-8,689
-8,185
-7,657
-7,171
-6,796
-6,596
-6,619
-6,919
-7,562
-8,605
-10,114
-12,148
-14,719
-17,873
-21,639
-25,876
-30,447
-35,191
-39,848
-44,33
-48,581
-52,312
-55,28
-57,498
-58,86
-59,376
-59,13
-57,606
-54,291
-49,095
-41,885
-32,442
-20,735
-6,469
10,636
29,947
50,766
72,668
95,084
117,531
139,585
160,455
179,299
195,888
210,124
221,875
231,222
238,243
242,951
245,38
245,619
243,552
238,831
231,2
220,259
205,329
186,124
163,023
136,648
108,056
78,817
50,203
23,572
0,808
-16,799
-28,813
-35,218
-36,825
-35,082
-30,987
-25,53
-20,098
-15,612
-12,563
-11,218
-11,136
-11,485
-11,858
-11,998
-11,596
-10,631
-9,123
-7,095
-4,882
-2,935
-1,481
-0,637
-0,424
-0,716
-1,415
-2,464
-3,733
-5,084
-6,412
-7,611
-8,598
-9,344
-9,821
-10,004
-9,879
-9,43
-8,649
-7,557
-6,191
-4,591
-2,793
-0,829
1,279
3,503
5,808
8,16
10,524
12,877
15,206
17,499
19,746
21,94
24,077
26,163
28,214
30,243
32,262
34,279
36,303
38,345
40,42
42,542
44,723
46,976
49,312
51,744
54,283
56,941
59,73
62,659
65,734
68,965
72,361
75,928
79,676
83,61
87,737
92,061
96,586
101,314
106,248
111,386
116,725
122,26
127,985
133,893
139,972
146,21
152,591
159,099
165,717
172,425
179,203
186,029
192,882
199,737
206,573
213,366
220,088
226,711
233,207
239,545
245,696
251,63
257,314
262,719
267,814
272,574
276,975
280,991
284,596
287,765
290,469
292,685
294,398
295,593
296,257
296,386
295,98
295,047
293,611
291,686
289,282
286,402
283,044
279,208
274,902
270,126
264,888
259,191
253,037
246,437
239,41
231,961
224,09
215,783
207,005
197,745
188,017
177,846
167,275
156,355
145,139
133,7
122,127
110,502
98,9
87,386
76,006
64,824
53,917
43,375
33,308
23,801
14,904
6,658
-0,916
-7,815
-14,047
-19,655
-24,712
-29,277
-33,394
-37,1
-40,409
-43,356
-45,988
-48,36
-50,541
-52,583
-54,521
-56,389
-58,216
-60,01
-61,774
-63,482
-65,082
-66,542
-67,844
-68,982
-69,962
-70,786
-71,448
-71,946
-72,279
-72,449
-72,46
-72,316
-72,017
-71,576
-71,01
-70,346
-69,626
-68,88
-68,127
-67,386
-66,667
-65,977
-65,327
-64,722
-64,159
-63,638
-63,163
-62,734
-62,356
-62,032
-61,758
-61,53
-61,344
-61,192
-61,072
-60,981
-60,914
-60,87
-60,845
-60,84
-60,855
-60,891
-60,945
-61,018
-61,106
-61,207
-61,319
-61,442
-61,572
-61,708
-61,848
-61,992
-62,14
-62,291
-62,446
-62,603
-62,764
-62,929
-63,098
-63,273
-63,453
-63,64
-63,834
-64,037
-64,249
-64,471
-64,703
-64,947
-65,203
-65,471
-65,753
-66,049
-66,358
-66,682
-67,019
-67,371
-67,737
-68,116
-68,509
-68,916
-69,336
-69,768
-70,214
-70,67
-71,138
-71,616
-72,103
-72,598
-73,1
-73,608
-74,121
-74,637
-75,155
-75,674
-76,192
-76,709
-77,224
-77,734
-78,239
-78,738
-79,23
-79,713
-80,187
-80,651
-81,103
-81,544
-81,972
-82,386
-82,787
-83,174
-83,546
-83,903
-84,244
-84,57
-84,881
-85,175
-85,453
-85,715
-85,96
-86,189
-86,401
-86,597
-86,776
-86,939
-87,085
-87,216
-87,33
-87,429
-87,512
-87,58
-87,633
-87,672
-87,696
-87,706
-87,702
-87,685
-87,654
-87,61
-87,553
-87,484
-87,402
-87,307
-87,2
-87,081
-86,95
-86,806
-86,651
-86,485
-86,307
-86,118
-85,918
-85,709
-85,489
-85,26
-85,021
-84,774
-84,518
-84,254
-83,982
-83,702
-83,414
-83,119
-82,817
-82,508
-82,193
-81,871
-81,544
-81,211
-80,873
-80,53
-80,184
-79,834
-79,482
-79,128
-78,772
-78,417
-78,062
-77,708
-77,356
-77,007
-76,662
-76,32
-75,982
-75,649
-75,321
-74,999
-74,684
-74,375
-74,073
-73,779
-73,493
-73,216
-72,949
-72,693
-72,447
-72,212
-71,989
-71,778
-71,581
-71,396
-71,224
-71,065
-70,919
-70,786
-70,665
-70,557
-70,459
-70,373
-70,296
-70,229
-70,171
-70,121
-70,079
-70,045
-70,017
-69,995
-69,979
-69,969
-69,963
-69,962
-69,964
-69,969
-69,976
-69,984
-69,993
-70,001
-70,007
-70,012
-70,012
-70,008
-70
-69,985
-69,964
-69,937
-69,902
-69,86
-69,811
-69,754
-69,689
-69,617
-69,538
-69,45
-69,355
-69,251
-69,139
-69,018
-68,887
-68,745
-68,592
-68,427
-68,248
-68,054
-67,843
-67,614
-67,366
-67,097
-66,805
-66,49
-66,15
-65,784
-65,389
-64,964
-64,506
-64,014
-63,485
-62,916
-62,305
-61,649
-60,945
-60,191
-59,382
-58,518
-57,595
-56,611
-55,565
-54,453
-53,274
-52,029
-50,715
-49,333
-47,885
-46,37
-44,792
-43,154
-41,46
-39,715
-37,924
-36,092
-34,225
-32,328
-30,407
-28,466
-26,51
-24,546
-22,58
-20,621
-18,678
-16,761
-14,88
-13,046
-11,268
-9,555
-7,914
-6,351
-4,871
-3,485
-2,203
-1,04
-0,012
0,872
1,602
2,173
2,586
2,849
2,978
2,997
2,924
2,776
2,566
2,299
1,989
1,653
1,314
1,005
0,752
0,577
0,496
0,522
0,647
0,843
1,061
1,23
1,302
1,249
1,047
0,669
0,061
-0,85
-2,143
-3,871
-6,082
-8,855
-12,172
-15,933
-19,941
-23,836
-27,239
-29,881
-31,563
-32,11
-31,685
-30,627
-29,316
-28,449
-28,597
-30,005
-32,79
-36,732
-40,865
-43,934
-44,703
-41,483
-32,89
-17,928
4,335
33,927
69,692
110,012
153,067
196,427
237,835
274,979
305,286
327,4
341,06
346,351
343,702
333,967
318,054
297,489
274,269
249,323
223,172
196,483
169,884
144,285
120,542
98,794
78,995
61,871
48,005
37,609
30,599
26,108
23,366
22,154
22,133
22,583
23,013
23,114
22,891
22,981
23,78
25,281
27,547
30,628
34,45
38,935
43,811
48,54
52,785
56,411
59,316
61,522
63,059
63,921
64,202
64,06
63,616
62,971
62,204
61,359
60,525
59,817
59,32
59,101
59,201
59,629
60,402
61,521
62,969
64,713
66,72
68,951
71,378
73,974
76,706
79,54
82,437
85,354
88,257
91,126
93,943
96,702
99,401
102,04
104,629
107,185
109,72
112,246
114,774
117,31
119,865
122,453
125,086
127,776
130,532
133,365
136,284
139,3
142,422
145,658
149,012
152,492
156,105
159,86
163,766
167,832
172,063
176,467
181,053
185,833
190,816
196,008
201,408
207,011
212,811
218,796
224,95
231,249
237,662
244,161
250,722
257,323
263,948
270,574
277,175
283,726
290,202
296,585
302,867
309,041
315,103
321,064
326,94
332,759
338,561
344,369
350,192
356,031
361,871
367,696
373,492
379,233
384,882
390,397
395,721
400,789
405,537
409,881
413,725
416,969
419,495
421,203
422,02
421,88
420,738
418,561
415,319
410,995
405,593
399,132
391,648
383,191
373,815
363,587
352,588
340,905
328,65
315,934
302,855
289,507
275,982
262,367
248,756
235,253
221,936
208,869
196,106
183,683
171,646
160,039
148,906
138,277
128,165
118,569
109,486
100,917
92,851
85,263
78,113
71,334
64,879
58,721
52,836
47,21
41,821
36,631
31,601
26,706
21,93
17,263
12,699
8,225
3,842
-0,435
-4,571
-8,518
-12,242
-15,727
-18,964
-21,95
-24,678
-27,136
-29,314
-31,214
-32,842
-34,205
-35,309
-36,157
-36,761
-37,143
-37,336
-37,376
-37,295
-37,113
-36,848
-36,515
-36,13
-35,709
-35,262
-34,795
-34,314
-33,828
-33,345
-32,878
-32,434
-32,02
-31,637
-31,289
-30,98
-30,716
-30,502
-30,345
-30,25
-30,225
-30,278
-30,421
-30,661
-31,005
-31,459
-32,029
-32,72
-33,537
-34,485
-35,566
-36,785
-38,144
-39,647
-41,298
-43,098
-45,051
-47,156
-49,416
-51,831
-54,399
-57,122
-59,997
-63,021
-66,193
-69,51
-72,966
-76,557
-80,278
-84,122
-88,083
-92,152
-96,32
-100,579
-104,918
-109,327
-113,796
-118,312
-122,866
-127,444
-132,037
-136,631
-141,215
-145,777
-150,304
-154,786
-159,209
-163,562
-167,833
-172,011
-176,085
-180,044
-183,878
-187,578
-191,135
-194,54
-197,786
-200,866
-203,773
-206,502
-209,049
-211,409
-213,581
-215,562
-217,351
-218,949
-220,355
-221,572
-222,603
-223,449
-224,115
-224,606
-224,926
-225,081
-225,076
-224,92
-224,617
-224,176
-223,604
-222,909
-222,1
-221,185
-220,171
-219,068
-217,885
-216,629
-215,309
-213,934
-212,511
-211,05
-209,557
-208,04
-206,508
-204,965
-203,418
-201,875
-200,339
-198,815
-197,308
-195,823
-194,361
-192,927
-191,522
-190,149
-188,809
-187,505
-186,236
-185,003
-183,807
-182,648
-181,526
-180,439
-179,387
-178,37
-177,386
-176,433
-175,509
-174,614
-173,745
-172,901
-172,078
-171,275
-170,489
-169,717
-168,959
-168,211
-167,471
-166,737
-166,007
-165,28
-164,554
-163,827
-163,098
-162,367
-161,632
-160,892
-160,146
-159,394
-158,636
-157,87
-157,097
-156,315
-155,526
-154,727
-153,92
-153,104
-152,28
-151,446
-150,604
-149,753
-148,894
-148,026
-147,151
-146,269
-145,379
-144,484
-143,582
-142,675
-141,763
-140,847
-139,927
-139,002
-138,074
-137,142
-136,206
-135,267
-134,324
-133,378
-132,427
-131,473
-130,516
-129,555
-128,591
-127,623
-126,653
-125,679
-124,703
-123,725
-122,745
-121,764
-120,782
-119,801
-118,821
-117,843
-116,867
-115,894
-114,926
-113,963
-113,005
-112,055
-111,113
-110,181
-109,259
-108,349
-107,453
-106,571
-105,706
-104,857
-104,027
-103,217
-102,428
-101,66
-100,915
-100,193
-99,495
-98,821
-98,171
-97,546
-96,945
-96,366
-95,81
-95,275
-94,758
-94,259
-93,773
-93,3
-92,837
-92,381
-91,927
-91,474
-91,018
-90,553
-90,077
-89,584
-89,071
-88,532
-87,962
-87,357
-86,712
-86,023
-85,284
-84,492
-83,642
-82,731
-81,755
-80,71
-79,593
-78,401
-77,133
-75,785
-74,358
-72,851
-71,265
-69,604
-67,872
-66,071
-64,207
-62,284
-60,308
-58,284
-56,217
-54,113
-51,977
-49,815
-47,636
-45,449
-43,266
-41,099
-38,955
-36,844
-34,775
-32,757
-30,801
-28,912
-27,1
-25,375
-23,749
-22,246
-20,883
-19,67
-18,614
-17,714
-16,961
-16,351
-15,871
-15,499
-15,22
-15,013
-14,858
-14,746
-14,661
-14,576
-14,458
-14,266
-13,958
-13,529
-12,976
-12,31
-11,563
-10,768
-9,974
-9,249
-8,627
-8,155
-7,899
-7,923
-8,327
-9,208
-10,608
-12,604
-15,294
-18,639
-22,549
-26,797
-30,955
-34,786
-38,233
-41,2
-43,67
-45,697
-47,273
-48,739
-50,728
-53,306
-56,147
-58,725
-60,237
-60,161
-58,165
-53,388
-44,696
-31,611
-14,085
7,424
32,047
59,432
89,262
120,543
151,957
182,333
210,549
235,835
257,625
274,857
286,561
292,279
291,774
285,033
272,399
254,317
231,311
204,31
174,417
142,724
110,572
79,472
50,555
24,692
2,779
-14,601
-27,264
-35,26
-39,251
-40,496
-39,924
-38,27
-36,452
-35,079
-34,469
-34,862
-35,96
-37,017
-37,647
-37,623
-36,664
-34,81
-32,19
-28,897
-25,299
-21,892
-18,934
-16,596
-14,98
-14,013
-13,639
-13,815
-14,396
-15,234
-16,225
-17,264
-18,285
-19,233
-20,013
-20,549
-20,791
-20,694
-20,246
-19,44
-18,275
-16,77
-14,963
-12,889
-10,588
-8,093
-5,431
-2,635
0,256
3,204
6,164
9,104
11,998
14,827
17,577
20,243
22,82
25,317
27,746
30,116
32,437
34,719
36,966
39,19
41,402
43,616
45,843
48,096
50,386
52,723
55,118
57,583
60,126
62,756
65,483
68,317
71,268
74,348
77,571
80,947
84,487
88,202
92,099
96,188
100,476
104,973
109,683
114,604
119,73
125,052
130,557
136,228
142,043
147,974
153,993
160,073
166,191
172,327
178,46
184,57
190,633
196,621
202,518
208,314
214,008
219,6
225,095
230,496
235,82
241,092
246,327
251,529
256,689
261,786
266,801
271,709
276,479
281,085
285,48
289,608
293,41
296,814
299,746
302,138
303,9
304,932
305,154
304,504
302,937
300,425
296,936
292,447
286,954
280,458
272,987
264,58
255,271
245,124
234,212
222,607
210,417
197,764
184,755
171,496
158,087
144,625
131,225
118,009
105,072
92,5
80,367
68,738
57,694
47,291
37,565
28,548
20,238
12,623
5,696
-0,558
-6,175
-11,19
-15,669
-19,696
-23,329
-26,618
-29,612
-32,357
-34,919
-37,349
-39,68
-41,939
-44,137
-46,283
-48,392
-50,471
-52,507
-54,483
-56,368
-58,114
-59,7
-61,107
-62,323
-63,336
-64,13
-64,693
-65,029
-65,15
-65,07
-64,802
-64,356
-63,744
-62,99
-62,12
-61,167
-60,164
-59,135
-58,101
-57,079
-56,084
-55,127
-54,22
-53,365
-52,561
-51,806
-51,101
-50,445
-49,841
-49,283
-48,767
-48,286
-47,836
-47,411
-47,008
-46,621
-46,247
-45,884
-45,528
-45,18
-44,837
-44,5
-44,166
-43,832
-43,498
-43,159
-42,816
-42,466
-42,107
-41,739
-41,362
-40,975
-40,58
-40,177
-39,768
-39,354
-38,938
-38,522
-38,108
-37,699
-37,297
-36,907
-36,53
-36,17
-35,831
-35,514
-35,223
-34,959
-34,725
-34,524
-34,356
-34,223
-34,128
-34,07
-34,052
-34,073
-34,135
-34,238
-34,382
-34,566
-34,789
-35,052
-35,353
-35,689
-36,06
-36,463
-36,896
-37,357
-37,842
-38,35
-38,877
-39,42
-39,977
-40,545
-41,12
-41,7
-42,283
-42,867
-43,448
-44,025
-44,597
-45,161
-45,716
-46,261
-46,794
-47,315
-47,822
-48,314
-48,792
-49,255
-49,703
-50,136
-50,554
-50,957
-51,347
-51,722
-52,086
-52,437
-52,777
-53,107
-53,428
-53,741
-54,047
-54,347
-54,642
-54,934
-55,223
-55,509
-55,794
-56,078
-56,362
-56,644
-56,926
-57,208
-57,49
-57,772
-58,053
-58,333
-58,612
-58,89
-59,166
-59,438
-59,708
-59,973
-60,233
-60,487
-60,734
-60,974
-61,206
-61,429
-61,642
-61,843
-62,033
-62,211
-62,374
-62,523
-62,656
-62,772
-62,872
-62,955
-63,02
-63,066
-63,094
-63,102
-63,091
-63,06
-63,009
-62,938
-62,846
-62,733
-62,601
-62,448
-62,277
-62,087
-61,879
-61,654
-61,413
-61,157
-60,886
-60,601
-60,302
-59,991
-59,669
-59,336
-58,995
-58,647
-58,292
-57,933
-57,57
-57,205
-56,839
-56,473
-56,109
-55,747
-55,39
-55,038
-54,694
-54,359
-54,034
-53,721
-53,421
-53,133
-52,859
-52,597
-52,347
-52,109
-51,88
-51,66
-51,447
-51,239
-51,035
-50,835
-50,638
-50,442
-50,244
-50,046
-49,844
-49,636
-49,417
-49,183
-48,928
-48,649
-48,343
-48,007
-47,636
-47,228
-46,78
-46,293
-45,764
-45,19
-44,568
-43,885
-43,14
-42,337
-41,481
-40,586
-39,663
-38,718
-37,765
-36,821
-35,893
-34,989
-34,102
-33,215
-32,319
-31,417
-30,517
-29,64
-28,795
-27,977
-27,182
-26,401
-25,62
-24,835
-24,027
-23,162
-22,237
-21,261
-20,266
-19,311
-18,433
-17,649
-16,967
-16,372
-15,855
-15,422
-15,072
-14,803
-14,626
-14,546
-14,586
-14,792
-15,164
-15,683
-16,309
-16,974
-17,636
-18,289
-18,927
-19,576
-20,283
-21,086
-22,034
-23,181
-24,549
-26,162
-28,032
-30,15
-32,536
-35,221
-38,224
-41,569
-45,247
-49,206
-53,386
-57,684
-61,941
-65,986
-69,624
-72,662
-74,943
-76,305
-76,569
-75,569
-73,135
-69,117
-63,416
-55,961
-46,721
-35,729
-23,038
-8,769
6,885
23,7
41,394
59,648
78,151
96,535
114,4
131,379
147,057
161,007
172,945
182,664
190,102
195,412
198,591
199,465
197,944
193,96
187,417
178,292
166,253
150,663
131,502
109,337
85,027
59,768
34,62
10,386
-11,698
-30,01
-43,656
-52,445
-56,809
-57,883
-56,532
-53,232
-48,79
-44,285
-40,424
-37,583
-35,625
-33,812
-31,727
-29,339
-26,564
-23,334
-19,638
-15,473
-11,064
-6,884
-3,227
-0,196
2,173
3,964
5,247
6,056
6,489
6,681
6,744
6,78
6,879
7,099
7,488
8,091
8,934
10,044
11,438
13,113
15,049
17,209
19,558
22,063
24,698
27,438
30,253
33,105
35,958
38,778
41,542
44,236
46,846
49,363
51,783
54,11
56,353
58,531
60,659
62,747
64,807
66,848
68,884
70,927
72,992
75,092
77,241
79,452
81,739
84,115
86,592
89,181
91,892
94,737
97,724
100,862
104,163
107,637
111,301
115,17
119,255
123,561
128,089
132,837
137,798
142,96
148,305
153,806
159,436
165,175
171,007
176,921
182,901
188,925
194,966
200,996
207
212,972
218,906
224,798
230,657
236,497
242,354
248,277
254,294
260,419
266,646
272,956
279,333
285,759
292,213
298,67
305,081
311,388
317,535
323,458
329,076
334,297
338,992
343,024
346,285
348,688
350,17
350,688
350,198
348,67
346,081
342,42
337,69
331,914
325,111
317,314
308,583
298,98
288,619
277,624
266,095
254,135
241,836
229,277
216,544
203,727
190,907
178,175
165,629
153,349
141,418
129,906
118,87
108,372
98,442
89,091
80,339
72,19
64,645
57,709
51,376
45,622
40,419
35,719
31,447
27,552
23,981
20,683
17,619
14,729
11,971
9,318
6,748
4,246
1,804
-0,592
-2,952
-5,264
-7,514
-9,671
-11,688
-13,538
-15,203
-16,662
-17,907
-18,919
-19,686
-20,211
-20,506
-20,582
-20,455
-20,135
-19,634
-18,977
-18,191
-17,308
-16,368
-15,398
-14,42
-13,456
-12,523
-11,636
-10,81
-10,051
-9,359
-8,736
-8,185
-7,71
-7,314
-6,998
-6,757
-6,588
-6,489
-6,455
-6,484
-6,573
-6,718
-6,918
-7,17
-7,472
-7,824
-8,223
-8,666
-9,15
-9,668
-10,216
-10,791
-11,386
-11,996
-12,617
-13,245
-13,875
-14,505
-15,132
-15,753
-16,365
-16,967
-17,557
-18,134
-18,698
-19,247
-19,782
-20,304
-20,812
-21,307
-21,79
-22,262
-22,725
-23,179
-23,627
-24,069
-24,509
-24,947
-25,386
-25,828
-26,276
-26,732
-27,198
-27,676
-28,169
-28,679
-29,208
-29,757
-30,327
-30,921
-31,537
-32,177
-32,841
-33,527
-34,235
-34,965
-35,715
-36,483
-37,268
-38,069
-38,882
-39,705
-40,537
-41,375
-42,215
-43,056
-43,893
-44,725
-45,548
-46,359
-47,155
-47,933
-48,69
-49,424
-50,132
-50,811
-51,458
-52,072
-52,651
-53,194
-53,698
-54,163
-54,589
-54,975
-55,321
-55,629
-55,899
-56,133
-56,331
-56,496
-56,63
-56,734
-56,813
-56,868
-56,903
-56,921
-56,926
-56,92
-56,909
-56,896
-56,884
-56,878
-56,882
-56,9
-56,935
-56,992
-57,075
-57,187
-57,333
-57,515
-57,737
-58,002
-58,314
-58,673
-59,084
-59,547
-60,065
-60,638
-61,267
-61,954
-62,698
-63,499
-64,358
-65,272
-66,241
-67,264
-68,338
-69,462
-70,632
-71,846
-73,101
-74,393
-75,719
-77,075
-78,458
-79,862
-81,284
-82,719
-84,162
-85,607
-87,05
-88,486
-89,908
-91,311
-92,689
-94,036
-95,347
-96,616
-97,839
-99,008
-100,12
-101,168
-102,147
-103,054
-103,883
-104,63
-105,291
-105,863
-106,343
-106,728
-107,015
-107,204
-107,292
-107,279
-107,164
-106,946
-106,626
-106,204
-105,682
-105,062
-104,345
-103,535
-102,635
-101,652
-100,592
-99,461
-98,267
-97,018
-95,722
-94,387
-93,022
-91,634
-90,23
-88,819
-87,409
-86,008
-84,629
-83,283
-81,98
-80,729
-79,537
-78,413
-77,368
-76,409
-75,542
-74,772
-74,108
-73,561
-73,149
-72,886
-72,78
-72,83
-73,033
-73,378
-73,856
-74,455
-75,152
-75,925
-76,747
-77,596
-78,459
-79,322
-80,159
-80,939
-81,617
-82,159
-82,554
-82,806
-82,934
-82,965
-82,93
-82,871
-82,842
-82,894
-83,084
-83,486
-84,172
-85,209
-86,66
-88,558
-90,971
-93,999
-97,634
-101,726
-105,993
-110,107
-113,89
-117,37
-120,57
-123,327
-125,538
-127,297
-128,982
-131,076
-133,621
-136,014
-137,391
-137,194
-135,046
-130,529
-122,932
-111,332
-95,383
-75,683
-53,452
-29,764
-5,405
18,921
42,303
63,536
81,689
96,472
108,234
117,367
124,077
128,589
131,084
131,714
130,642
127,803
122,673
114,793
103,745
88,837
69,818
47,096
21,262
-6,674
-35,181
-63,011
-88,853
-110,896
-127,927
-139,563
-145,8
-147,415
-145,768
-141,793
-136,431
-131,008
-126,41
-123,105
-121,346
-120,718
-120,453
-120,188
-119,697
-118,71
-117,213
-115,239
-112,831
-110,32
-108,144
-106,529
-105,588
-105,345
-105,681
-106,503
-107,751
-109,296
-110,996
-112,743
-114,427
-115,958
-117,3
-118,419
-119,283
-119,873
-120,168
-120,154
-119,846
-119,275
-118,474
-117,474
-116,3
-114,969
-113,508
-111,946
-110,312
-108,638
-106,941
-105,229
-103,507
-101,78
-100,049
-98,31
-96,55
-94,75
-92,891
-90,957
-88,937
-86,821
-84,594
-82,242
-79,752
-77,111
-74,31
-71,341
-68,193
-64,856
-61,32
-57,578
-53,622
-49,45
-45,053
-40,424
-35,56
-30,458
-25,118
-19,538
-13,718
-7,651
-1,34
5,207
11,978
18,959
26,13
33,474
40,961
48,555
56,219
63,917
71,624
79,326
87,005
94,643
102,217
109,704
117,091
124,378
131,562
138,631
145,582
152,406
159,117
165,751
172,333
178,877
185,378
191,8
198,109
204,275
210,257
216,01
221,472
226,56
231,214
235,398
239,07
242,193
244,7
246,489
247,475
247,593
246,798
245,087
242,464
238,933
234,527
229,298
223,317
216,678
209,444
201,644
193,311
184,482
175,233
165,679
155,935
146,103
136,289
126,573
117,019
107,696
98,64
89,864
81,372
73,157
65,239
57,672
50,518
43,824
37,614
31,875
26,579
21,698
17,177
12,974
9,054
5,384
1,953
-1,237
-4,178
-6,865
-9,305
-11,53
-13,587
-15,514
-17,341
-19,08
-20,727
-22,272
-23,683
-24,934
-26,002
-26,872
-27,542
-28,022
-28,321
-28,454
-28,436
-28,271
-27,957
-27,491
-26,873
-26,111
-25,219
-24,219
-23,141
-22,015
-20,866
-19,72
-18,593
-17,497
-16,442
-15,433
-14,469
-13,553
-12,691
-11,886
-11,145
-10,469
-9,858
-9,312
-8,824
-8,392
-8,008
-7,667
-7,362
-7,089
-6,843
-6,621
-6,421
-6,24
-6,072
-5,915
-5,763
-5,61
-5,451
-5,278
-5,087
-4,871
-4,627
-4,349
-4,035
-3,682
-3,29
-2,858
-2,388
-1,879
-1,333
-0,752
-0,138
0,507
