Name,Yannick Börner
Date of Birth,"29. Sep 1994"
Recorded Date,2019-12-18 12:11:20 +0100
Classification,Sinus Rhythm
Symptoms,Dizziness,Other
Software Version,1.18
Device,"Watch4,1"
Sample Rate,511,68 hertz


Lead,Lead I
Unit,µV

-68,317
-78,092
-86,952
-94,804
-101,61
-107,355
-111,951
-115,329
-117,45
-118,291
-117,969
-116,647
-114,33
-110,997
-106,84
-102,081
-97,018
-92,017
-86,987
-81,649
-76,031
-70,226
-64,107
-57,552
-50,219
-41,59
-31,915
-21,82
-11,566
-1,344
8,589
18,063
26,61
33,554
39,025
43,622
47,679
51,499
55,295
59,131
63,347
68,46
74,466
81,012
87,838
94,699
101,485
108,241
114,874
121,165
127,052
132,612
137,887
142,906
147,653
152,005
155,795
158,933
161,312
162,807
163,433
163,215
162,066
159,942
156,922
153,046
148,457
143,342
137,552
130,939
123,573
115,498
106,717
97,305
87,155
76,116
64,505
52,658
40,742
29,005
17,635
6,731
-3,428
-12,566
-20,787
-28,206
-34,86
-40,876
-46,291
-51,109
-55,47
-59,503
-63,184
-66,519
-69,549
-72,298
-74,867
-77,351
-79,776
-82,17
-84,577
-87,023
-89,529
-92,104
-94,717
-97,34
-99,953
-102,537
-105,075
-107,543
-109,901
-112,103
-114,114
-115,91
-117,476
-118,801
-119,88
-120,709
-121,294
-121,654
-121,808
-121,778
-121,584
-121,241
-120,769
-120,192
-119,539
-118,843
-118,127
-117,402
-116,676
-115,949
-115,224
-114,509
-113,807
-113,116
-112,435
-111,765
-111,116
-110,506
-109,943
-109,428
-108,946
-108,472
-108,002
-107,555
-107,168
-106,896
-106,775
-106,804
-107,002
-107,411
-108,034
-108,849
-109,754
-110,531
-111,066
-111,373
-111,503
-111,559
-111,671
-111,911
-112,483
-113,811
-116,124
-119,451
-123,653
-128,288
-132,867
-137,03
-140,314
-142,049
-141,772
-139,174
-134,203
-127,402
-119,503
-111,188
-103,149
-96,122
-90,702
-87,472
-86,844
-88,608
-92,22
-97,019
-102,405
-107,93
-113,237
-117,905
-121,505
-123,951
-125,449
-126,388
-127,089
-127,669
-128,165
-128,622
-129,164
-129,865
-130,667
-131,41
-131,957
-132,279
-132,407
-132,404
-132,303
-132,101
-131,817
-131,492
-131,161
-130,843
-130,536
-130,225
-129,893
-129,534
-129,14
-128,7
-128,209
-127,668
-127,085
-126,466
-125,808
-125,108
-124,362
-123,574
-122,75
-121,906
-121,053
-120,202
-119,369
-118,571
-117,834
-117,184
-116,633
-116,176
-115,792
-115,464
-115,185
-114,951
-114,76
-114,606
-114,48
-114,375
-114,29
-114,224
-114,171
-114,12
-114,054
-113,953
-113,806
-113,616
-113,395
-113,148
-112,878
-112,587
-112,275
-111,956
-111,637
-111,299
-110,927
-110,5
-110,009
-109,478
-108,923
-108,334
-107,706
-107,056
-106,437
-105,942
-105,581
-105,251
-104,831
-104,223
-103,481
-102,66
-101,654
-100,478
-99,253
-98,2
-97,962
-98,304
-98,518
-99,137
-100,165
-103,098
-109,665
-117,013
-122,729
-123,561
-116,211
-104,127
-90,379
-77,45
-68,781
-63,015
-59,214
-57,96
-58,248
-60,4
-64,608
-69,701
-75,119
-80,327
-84,354
-86,647
-87,074
-85,675
-82,895
-79,43
-75,66
-71,792
-68,123
-64,814
-61,946
-59,574
-57,549
-55,632
-53,734
-51,844
-49,99
-48,271
-46,747
-45,453
-44,46
-43,829
-43,598
-43,783
-44,368
-45,318
-46,601
-48,187
-50,05
-52,163
-54,482
-56,956
-59,528
-62,139
-64,748
-67,326
-69,851
-72,311
-74,688
-76,972
-79,166
-81,278
-83,329
-85,355
-87,384
-89,44
-91,582
-93,868
-96,299
-98,86
-101,425
-103,745
-105,609
-106,83
-107,19
-106,582
-105,048
-102,599
-99,509
-96,487
-94,022
-92,461
-92,251
-92,468
-92,039
-91,356
-89,405
-86,489
-83,54
-76,73
-64,359
-44,929
-15,08
21,299
61,489
104,394
144,033
179,014
206,794
221,117
221,685
208,522
184,51
159,698
141,894
136,868
146,424
163,013
176,715
178,151
161,247
128,111
84,875
39,491
-1,108
-34,383
-60,431
-81,337
-98,956
-113,221
-122,76
-125,592
-120,956
-109,784
-94,037
-76,237
-58,515
-42,465
-29,703
-21,008
-16,047
-14,367
-15,719
-21,581
-34,861
-56,321
-83,136
-108,306
-122,408
-119,821
-101,232
-72,21
-42,312
-19,946
-8,304
-8,062
-16,036
-26,119
-34,774
-39,111
-38,459
-35,932
-33,469
-32,244
-32,644
-33,194
-33,115
-32,501
-31,543
-30,62
-29,82
-28,886
-27,617
-25,973
-23,951
-21,544
-18,745
-15,55
-11,981
-8,098
-3,97
0,366
4,876
9,532
14,315
19,203
24,171
29,189
34,22
39,226
44,172
49,034
53,795
58,441
62,96
67,342
71,58
75,682
79,657
83,516
87,276
90,959
94,586
98,197
101,825
105,507
109,292
113,213
117,299
121,583
126,091
130,86
135,932
141,329
147,065
153,146
159,558
166,285
173,299
180,548
187,982
195,544
203,167
210,791
218,359
225,795
233,014
239,911
246,362
252,253
257,482
261,944
265,548
268,201
269,829
270,385
269,83
268,126
265,239
261,135
255,791
249,219
241,461
232,585
222,692
211,89
200,292
188,032
175,25
162,098
148,718
135,236
121,778
108,474
95,474
82,926
70,965
59,696
49,186
39,483
30,608
22,57
15,36
8,947
3,284
-1,688
-6,029
-9,793
-13,039
-15,844
-18,304
-20,518
-22,585
-24,581
-26,557
-28,555
-30,603
-32,721
-34,918
-37,196
-39,543
-41,944
-44,387
-46,856
-49,332
-51,783
-54,166
-56,427
-58,513
-60,377
-61,987
-63,322
-64,366
-65,108
-65,54
-65,649
-65,431
-64,885
-64,005
-62,788
-61,239
-59,362
-57,184
-54,755
-52,126
-49,355
-46,494
-43,565
-40,608
-37,671
-34,808
-32,096
-29,585
-27,29
-25,262
-23,589
-22,314
-21,469
-20,974
-20,607
-20,258
-19,94
-19,675
-19,546
-19,628
-19,92
-20,683
-22,438
-25,432
-29,665
-34,845
-40,311
-45,567
-50,36
-54,093
-55,907
-55,257
-51,826
-45,95
-38,691
-30,786
-22,61
-14,797
-8,079
-3,062
-0,339
0,233
-0,409
-1,673
-3,285
-4,904
-6,3
-7,161
-6,998
-5,824
-4,17
-2,355
-0,543
1,159
2,818
4,371
5,579
6,404
7,009
7,489
7,908
8,294
8,599
8,83
9,081
9,387
9,709
10,029
10,372
10,667
10,712
10,467
10,025
9,385
8,796
7,883
5,313
1,357
-2,661
-4,696
-0,852
8,771
20,153
29,361
30,828
23,941
13,979
5,038
1,462
4,192
9,27
14,19
17,296
17,97
17,78
17,472
16,985
16,421
15,586
14,451
13,263
12,113
10,976
9,875
8,833
7,849
6,921
6,035
5,173
4,347
3,603
2,972
2,459
2,048
1,714
1,436
1,202
1,004
0,832
0,672
0,518
0,372
0,238
0,123
0,023
-0,067
-0,162
-0,273
-0,404
-0,552
-0,71
-0,872
-1,033
-1,19
-1,341
-1,478
-1,601
-1,71
-1,811
-1,91
-2,009
-2,108
-2,207
-2,304
-2,401
-2,5
-2,601
-2,708
-2,82
-2,941
-3,073
-3,218
-3,379
-3,556
-3,749
-3,958
-4,183
-4,426
-4,687
-4,965
-5,262
-5,577
-5,912
-6,268
-6,645
-7,043
-7,463
-7,906
-8,373
-8,864
-9,381
-9,922
-10,489
-11,081
-11,697
-12,335
-12,996
-13,675
-14,372
-15,084
-15,81
-16,547
-17,293
-18,047
-18,806
-19,569
-20,334
-21,096
-21,854
-22,602
-23,338
-24,057
-24,755
-25,427
-26,069
-26,675
-27,244
-27,771
-28,254
-28,685
-29,058
-29,367
-29,611
-29,787
-29,897
-29,941
-29,922
-29,848
-29,731
-29,584
-29,418
-29,24
-29,051
-28,852
-28,646
-28,435
-28,224
-28,011
-27,786
-27,545
-27,284
-27
-26,69
-26,341
-25,929
-25,436
-24,848
-24,162
-23,388
-22,539
-21,627
-20,679
-19,72
-18,79
-17,939
-17,206
-16,618
-16,199
-15,968
-15,947
-16,174
-16,675
-17,468
-18,563
-19,954
-21,626
-23,563
-25,728
-28,073
-30,541
-33,061
-35,577
-38,057
-40,483
-42,855
-45,177
-47,441
-49,639
-51,777
-53,866
-55,932
-58,011
-60,14
-62,363
-64,75
-67,399
-70,36
-73,625
-77,102
-80,593
-83,911
-86,914
-89,428
-91,298
-92,511
-93,168
-93,558
-94,137
-95,172
-96,727
-98,803
-101,186
-103,4
-104,766
-104,247
-100,695
-93,391
-81,971
-66,369
-46,887
-24,091
0,921
26,612
51,578
74,645
95,813
115,421
132,703
147,802
159,729
167,474
173,345
177,648
181,817
188,624
197,165
208,476
221,979
232,686
235,093
221,678
186,198
129,164
58,64
-12,627
-70,015
-103,514
-113,076
-104,937
-89,236
-75,069
-65,503
-59,645
-54,476
-47,878
-40,144
-33,055
-29,139
-29,46
-33,609
-40,581
-48,667
-56,538
-63,635
-69,436
-73,449
-75,508
-75,605
-73,999
-71,367
-68,377
-65,368
-62,561
-60,115
-58,063
-56,421
-55,138
-53,982
-52,677
-51,059
-49,047
-46,623
-43,82
-40,654
-37,139
-33,331
-29,335
-25,249
-21,144
-17,071
-13,057
-9,137
-5,362
-1,792
1,518
4,514
7,146
9,388
11,217
12,632
13,659
14,341
14,745
14,957
15,043
15,067
15,097
15,194
15,423
15,865
16,591
17,686
19,253
21,369
24,097
27,481
31,522
36,213
41,527
47,415
53,832
60,725
68,027
75,678
83,623
91,788
100,103
108,474
116,785
124,938
132,852
140,463
147,735
154,639
161,154
167,281
173,038
178,446
183,539
188,339
192,85
197,089
201,072
204,825
208,392
211,795
215,034
218,105
220,989
223,66
226,091
228,236
230,024
231,394
232,284
232,646
232,458
231,692
230,319
228,318
225,667
222,364
218,429
213,883
208,751
203,065
196,857
190,177
183,092
175,651
167,891
159,839
151,511
142,933
134,139
125,159
116,019
106,736
97,319
87,785
78,157
68,456
58,708
48,939
39,174
29,468
19,902
10,563
1,546
-7,074
-15,238
-22,883
-29,947
-36,373
-42,108
-47,112
-51,357
-54,815
-57,466
-59,31
-60,352
-60,641
-60,256
-59,294
-57,86
-56,048
-53,935
-51,603
-49,144
-46,648
-44,195
-41,854
-39,676
-37,708
-36,019
-34,667
-33,659
-32,978
-32,587
-32,422
-32,447
-32,658
-33
-33,403
-33,94
-34,686
-35,519
-36,402
-37,319
-37,983
-39,072
-41,229
-43,427
-45,362
-45,323
-41,322
-35,868
-30,578
-27,694
-30,299
-35,546
-41,004
-44,9
-44,22
-40,542
-35,707
-30,386
-26,191
-22,689
-19,168
-16,037
-13,59
-12,445
-13,073
-15,151
-18,07
-21,456
-25,058
-28,651
-31,933
-34,441
-35,869
-36,317
-36,176
-35,756
-35,219
-34,636
-34,054
-33,622
-33,459
-33,505
-33,562
-33,451
-33,078
-32,438
-31,583
-30,533
-29,293
-27,894
-26,386
-24,822
-23,235
-21,637
-20,023
-18,395
-16,777
-15,198
-13,698
-12,308
-11,044
-9,916
-8,927
-8,071
-7,336
-6,706
-6,159
-5,679
-5,261
-4,896
-4,577
-4,293
-4,018
-3,74
-3,451
-3,15
-2,847
-2,548
-2,254
-1,978
-1,733
-1,542
-1,441
-1,457
-1,599
-1,891
-2,355
-3,025
-3,949
-5,153
-6,634
-8,387
-10,388
-12,621
-15,075
-17,722
-20,526
-23,44
-26,405
-29,374
-32,316
-35,184
-37,928
-40,487
-42,782
-44,775
-46,436
-47,728
-48,629
-49,114
-49,173
-48,86
-48,218
-47,267
-46,072
-44,7
-43,219
-41,756
-40,335
-38,863
-37,312
-35,683
-33,939
-32,045
-30,024
-27,897
-25,734
-23,924
-22,207
-19,516
-16,108
-12,839
-11,538
-16,001
-25,842
-37,004
-45,36
-44,962
-35,374
-22,224
-9,793
-2,555
-1,493
-2,814
-4,343
-4,893
-4,03
-3,035
-2,436
-2,015
-1,721
-1,361
-0,814
-0,102
0,742
1,639
2,494
3,2
3,723
4,127
4,443
4,674
4,829
4,901
4,895
4,839
4,736
4,566
4,315
3,966
3,514
2,964
2,32
1,581
0,748
-0,183
-1,21
-2,332
-3,547
-4,853
-6,249
-7,735
-9,308
-10,965
-12,704
-14,52
-16,412
-18,378
-20,416
-22,526
-24,704
-26,949
-29,257
-31,626
-34,05
-36,522
-39,04
-41,603
-44,196
-46,809
-49,432
-52,053
-54,672
-57,297
-59,91
-62,495
-65,068
-67,642
-70,225
-72,833
-75,437
-77,993
-80,515
-83,035
-85,447
-87,622
-89,621
-91,424
-92,999
-94,594
-95,515
-95,089
-94,273
-93,356
-94,102
-98,627
-104,617
-110,533
-114,075
-112,076
-107,35
-102,287
-98,528
-98,785
-101,145
-103,66
-105,902
-106,677
-106,657
-106,714
-106,654
-106,551
-106,318
-105,749
-104,932
-103,963
-102,824
-101,476
-99,858
-97,913
-95,604
-92,961
-90,074
-86,998
-83,734
-80,437
-77,464
-74,974
-72,964
-71,46
-70,096
-69,241
-70,321
-73,054
-76,29
-78,105
-74,751
-66,887
-58,889
-55,055
-60,96
-76,512
-96,021
-114,722
-127,597
-133,513
-135,606
-135,63
-135,102
-134,507
-132,658
-129,65
-126,131
-122,555
-119,865
-118,751
-119,322
-121,427
-124,739
-128,632
-132,271
-135,937
-140
-143,337
-145,689
-145,549
-140,458
-132,446
-124,354
-119,361
-122,846
-135,307
-150,848
-165,976
-181,067
-179,265
-140,761
-100,083
-100,017
-106,9
-81,542
-46,465
-20,444
4,783
29,947
52,075
71,974
89,469
104,797
118,699
131,83
144,933
157,75
168,902
177,156
182,305
186,531
193,054
203,442
216,388
225,235
221,485
198,701
155,487
100,055
45,152
4,232
-14,163
-12,575
1,94
20,001
34,871
48,009
60,306
71,517
80,607
82,201
75,555
64,892
53,858
47,654
47,829
51,411
56,803
62,486
67,659
73,3
79,575
85,888
91,632
95,719
96,834
94,252
88,146
79,29
68,614
57,048
45,493
35,208
28,058
25,916
28,93
35,301
44,051
54,953
69,308
90,331
116,54
142,794
162,974
169,232
159,915
138,67
111,7
89,192
77,905
81,021
97,23
119,145
140,573
157,016
167,521
175,273
181,581
186,884
191,31
193,747
194,1
190,583
179,567
159,406
131,788
104,664
88,978
93,127
120,409
165,216
216,117
259,535
282,522
279,287
253,896
218,823
191,664
187,202
209,195
252,268
304,401
352,731
391,925
419,702
437,606
448,696
452,325
450,904
446,226
439,248
433,609
429,508
427,047
427,823
431,966
440,737
455,237
474,796
498,118
523,456
548,874
572,562
593,191
609,715
621,18
627,299
628,581
625,831
620,089
612,603
604,158
595,303
586,741
578,798
571,427
564,48
557,545
550,047
541,84
533,078
523,643
513,412
502,478
490,728
478,75
468,049
458,467
448,777
436,864
418,736
393,915
365,336
337,544
317,673
308,562
308,593
312,861
313,245
305,024
285,472
256,673
224,268
191,314
163,491
141,819
123,959
111,395
100,136
88,999
79,658
67,477
52,322
33,483
7,956
-20,071
-47,993
-74,045
-94,383
-109,779
-120,764
-126,263
-126,843
-122,121
-112,106
-98,467
-82,799
-66,829
-52,675
-41,757
-34,251
-30,042
-29,264
-33,787
-46,951
-69,798
-98,827
-124,949
-137,94
-133,102
-113,367
-88,599
-68,693
-58,248
-56,562
-59,409
-63,941
-69,821
-77,86
-88,968
-102,517
-117,169
-131,82
-145,338
-156,795
-165,427
-170,472
-171,95
-170,598
-167,186
-162,543
-157,28
-151,789
-146,641
-142,506
-139,689
-138,149
-137,628
-137,638
-137,894
-138,339
-138,851
-139,288
-139,588
-139,726
-139,806
-140,063
-140,619
-141,487
-142,656
-144,06
-145,641
-147,365
-149,179
-151,015
-152,83
-154,602
-156,321
-158,001
-159,649
-161,265
-162,846
-164,381
-165,862
-167,286
-168,656
-169,982
-171,275
-172,544
-173,796
-175,031
-176,248
-177,443
-178,609
-179,736
-180,815
-181,831
-182,779
-183,655
-184,453
-185,172
-185,806
-186,349
-186,794
-187,135
-187,368
-187,487
-187,489
-187,37
-187,128
-186,762
-186,273
-185,661
-184,929
-184,078
-183,109
-182,025
-180,828
-179,524
-178,115
-176,607
-175,006
-173,317
-171,549
-169,709
-167,806
-165,848
-163,845
-161,807
-159,742
-157,66
-155,571
-153,483
-151,406
-149,35
-147,322
-145,331
-143,386
-141,497
-139,669
-137,912
-136,232
-134,638
-133,139
-131,742
-130,453
-129,28
-128,228
-127,301
-126,504
-125,839
-125,305
-124,902
-124,628
-124,483
-124,468
-124,58
-124,821
-125,187
-125,674
-126,273
-126,978
-127,779
-128,665
-129,633
-130,674
-131,789
-132,981
-134,252
-135,608
-137,054
-138,586
-140,196
-141,869
-143,59
-145,353
-147,156
-149,009
-150,91
-152,844
-154,795
-156,756
-158,711
-160,659
-162,568
-164,359
-166,022
-167,615
-169,201
-170,884
-172,676
-174,445
-176,146
-177,842
-179,45
-180,807
-181,735
-181,934
-181,411
-180,554
-179,576
-178,551
-177,693
-177,199
-177,341
-178,583
-180,933
-183,908
-187,214
-190,672
-194,077
-197,353
-200,287
-202,456
-203,808
-204,643
-205,151
-205,483
-205,719
-205,794
-205,763
-205,822
-206,014
-206,254
-206,475
-206,596
-206,597
-206,544
-206,454
-206,303
-206,085
-205,805
-205,479
-205,137
-204,799
-204,458
-204,11
-203,746
-203,358
-202,942
-202,493
-202,008
-201,475
-200,885
-200,232
-199,511
-198,727
-197,891
-197,01
-196,085
-195,119
-194,113
-193,072
-192,005
-190,914
-189,789
-188,626
-187,419
-186,17
-184,892
-183,591
-182,269
-180,926
-179,546
-178,119
-176,64
-175,09
-173,447
-171,694
-169,808
-167,791
-165,667
-163,453
-161,17
-158,828
-156,424
-153,963
-151,46
-148,926
-146,387
-143,87
-141,402
-139,039
-136,843
-134,867
-133,154
-131,715
-130,524
-129,558
-128,791
-128,194
-127,75
-127,428
-127,192
-127,015
-126,865
-126,694
-126,444
-126,025
-125,337
-124,31
-122,889
-121,057
-118,836
-116,247
-113,326
-110,129
-106,712
-103,134
-99,454
-95,714
-91,957
-88,249
-84,674
-81,338
-78,346
-75,774
-73,672
-72,064
-70,95
-70,319
-70,141
-70,358
-70,912
-71,751
-72,839
-74,159
-75,69
-77,405
-79,255
-81,182
-83,136
-85,064
-86,938
-88,756
-90,529
-92,286
-94,075
-95,916
-97,83
-99,842
-101,892
-103,869
-105,626
-106,908
-107,494
-107,299
-106,225
-104,203
-101,324
-97,66
-93,322
-88,61
-83,717
-78,56
-73,037
-66,961
-59,856
-51,328
-41,028
-28,405
-13,106
4,848
25,407
48,441
73,389
99,69
126,85
154,098
180,751
206,388
230,373
251,829
270,085
284,394
293,842
297,746
295,481
286,377
270,181
247,242
218,461
185,293
149,436
113,105
77,88
44,062
13,65
-11,358
-28,814
-33,096
-24,141
-7,243
11,252
21,863
27,525
22,01
-13,696
-38,444
-5,698
38,187
48,803
47,556
49,849
50,514
49,476
48,438
47,808
46,92
45,118
43,044
41,125
39,707
39,241
39,817
41,24
43,101
45,092
47,05
48,843
50,396
51,655
52,57
53,207
53,76
54,342
54,993
55,735
56,535
57,373
58,254
59,165
60,078
60,999
61,957
62,978
64,106
65,37
66,784
68,383
70,198
72,253
74,569
77,161
80,037
83,212
86,692
90,466
94,516
98,811
103,314
108,001
112,851
117,844
122,965
128,192
133,508
138,902
144,368
149,893
155,468
161,082
166,721
172,388
178,082
183,802
189,551
195,321
201,101
206,877
212,632
218,341
223,978
229,514
234,919
240,173
245,257
250,154
254,847
259,316
263,546
267,53
271,268
274,754
277,986
280,961
283,679
286,157
288,412
290,455
292,296
293,932
295,355
296,564
297,555
298,317
298,831
299,06
298,958
298,49
297,626
296,339
294,602
292,368
289,596
286,257
282,325
277,788
272,641
266,867
260,451
253,396
245,723
237,474
228,715
219,5
209,883
199,922
189,677
179,225
168,641
157,995
147,353
136,782
126,346
116,126
106,206
96,659
87,549
78,921
70,796
63,199
56,15
49,664
43,752
38,413
33,642
29,432
25,77
22,642
20,027
17,894
16,204
14,912
13,956
13,29
12,876
12,672
12,643
12,747
12,936
13,175
13,434
13,686
13,914
14,095
14,203
14,216
14,113
13,889
13,559
13,132
12,616
12,024
11,371
10,68
9,99
9,326
8,702
8,128
7,604
7,14
6,754
6,461
6,277
6,212
6,259
6,415
6,678
7,037
7,479
7,978
8,499
9,015
9,515
9,987
10,428
10,832
11,186
11,483
11,715
11,878
11,97
11,989
11,93
11,797
11,595
11,337
11,041
10,72
10,38
10,028
9,668
9,303
8,939
8,572
8,201
7,824
7,441
7,057
6,677
6,296
5,918
5,554
5,208
4,89
4,608
4,336
4,056
3,779
3,477
3,107
2,658
2,094
1,39
0,62
-0,154
-0,956
-1,681
-2,108
-2,261
-2,219
-1,887
-1,579
-1,081
0,922
4,173
7,4
8,781
3,923
-8,344
-23,768
-37,113
-40,554
-29,6
-9,858
10,436
22,648
20,054
6,364
-10,388
-24,164
-29,702
-27,909
-23,725
-19,679
-17,651
-17,861
-18,498
-19,049
-19,63
-20,19
-21,059
-22,227
-23,376
-24,414
-25,339
-26,061
-26,519
-26,784
-26,843
-26,8
-27,038
-26,929
-25,88
-24,792
-23,797
-24,87
-30,326
-37,422
-44,363
-48,333
-45,513
-39,282
-32,546
-27,184
-26,349
-27,943
-29,775
-31,558
-32,168
-32,225
-32,58
-32,994
-33,479
-33,977
-34,325
-34,558
-34,693
-34,763
-34,815
-34,899
-35,078
-35,321
-35,595
-35,906
-36,244
-36,612
-37,018
-37,449
-37,893
-38,359
-38,857
-39,391
-39,969
-40,586
-41,235
-41,915
-42,624
-43,36
-44,121
-44,904
-45,706
-46,523
-47,353
-48,192
-49,036
-49,881
-50,722
-51,554
-52,372
-53,173
-53,953
-54,71
-55,441
-56,143
-56,814
-57,453
-58,058
-58,629
-59,163
-59,659
-60,115
-60,531
-60,905
-61,235
-61,521
-61,763
-61,96
-62,115
-62,23
-62,307
-62,351
-62,363
-62,349
-62,313
-62,259
-62,189
-62,107
-62,017
-61,924
-61,836
-61,759
-61,694
-61,645
-61,613
-61,596
-61,592
-61,594
-61,592
-61,576
-61,535
-61,464
-61,36
-61,221
-61,048
-60,841
-60,599
-60,329
-60,042
-59,749
-59,467
-59,208
-58,989
-58,833
-58,774
-58,844
-59,071
-59,479
-60,082
-60,895
-61,924
-63,167
-64,617
-66,246
-68,02
-69,895
-71,826
-73,771
-75,688
-77,52
-79,201
-80,664
-81,848
-82,695
-83,153
-83,166
-82,691
-81,699
-80,181
-78,158
-75,668
-72,758
-69,485
-65,904
-62,07
-58,054
-53,94
-49,809
-45,746
-41,837
-38,172
-34,849
-31,969
-29,623
-27,871
-26,741
-26,244
-26,358
-27,049
-28,301
-30,054
-32,207
-34,684
-37,406
-40,299
-43,371
-46,632
-50,019
-53,58
-57,504
-61,744
-66,123
-70,681
-75,118
-79,566
-85,265
-91,942
-98,326
-102,681
-100,478
-90,263
-75,515
-61,316
-57,399
-69,883
-95,542
-126,752
-149,784
-153,844
-138,566
-109,639
-78,844
-56,404
-45,361
-44,634
-49,469
-55,668
-62,057
-68,701
-76,268
-84,621
-92,379
-97,547
-98,257
-93,542
-83,113
-67,3
-47,11
-23,58
2,06
28,293
53,998
78,398
100,86
121,128
139,267
155,355
169,684
182,537
193,647
202,473
208,446
211,082
209,974
204,735
194,842
179,835
159,94
136,004
109,134
80,345
50,665
21,247
-6,505
-30,933
-50,988
-66,473
-77,535
-84,357
-87,28
-86,77
-83,567
-78,933
-73,708
-67,984
-61,755
-55,113
-48,169
-41,244
-34,647
-28,232
-22,117
-16,957
-13,269
-11,339
-11,259
-12,661
-14,969
-17,929
-21,198
-24,151
-26,361
-27,561
-27,619
-26,794
-25,519
-23,994
-22,379
-20,881
-19,56
-18,454
-17,579
-16,773
-15,821
-14,623
-13,13
-11,334
-9,292
-7,033
-4,571
-1,957
0,76
3,555
6,41
9,338
12,357
15,473
18,686
21,991
25,38
28,854
32,418
36,078
39,84
43,704
47,673
51,754
55,946
60,243
64,624
69,054
73,512
77,982
82,459
86,938
91,417
95,894
100,376
104,881
109,425
114,019
118,669
123,366
128,111
132,915
137,803
142,813
147,967
153,275
158,751
164,407
170,263
176,329
182,59
189,013
195,562
202,211
208,939
215,729
222,55
229,354
236,083
242,675
249,077
255,24
261,101
266,576
271,574
276,008
279,812
282,937
285,333
286,935
287,69
287,549
286,487
284,497
281,571
277,701
272,873
267,079
260,333
252,678
244,175
234,886
224,877
214,22
203,004
191,337
179,318
167,038
154,576
141,998
129,39
116,851
104,484
92,396
80,686
69,433
58,712
48,595
39,131
30,352
22,266
14,854
8,106
2,014
-3,43
-8,234
-12,425
-16,049
-19,158
-21,813
-24,084
-26,038
-27,753
-29,311
-30,773
-32,181
-33,563
-34,925
-36,279
-37,64
-39,015
-40,409
-41,822
-43,243
-44,662
-46,068
-47,437
-48,742
-49,95
-51,021
-51,93
-52,665
-53,222
-53,607
-53,826
-53,887
-53,804
-53,591
-53,266
-52,843
-52,335
-51,754
-51,114
-50,435
-49,736
-49,039
-48,36
-47,709
-47,094
-46,518
-45,982
-45,488
-45,032
-44,608
-44,212
-43,841
-43,494
-43,17
-42,867
-42,583
-42,314
-42,058
-41,812
-41,573
-41,339
-41,109
-40,881
-40,655
-40,429
-40,206
-39,984
-39,764
-39,545
-39,327
-39,11
-38,894
-38,679
-38,466
-38,254
-38,046
-37,843
-37,645
-37,457
-37,279
-37,113
-36,962
-36,828
-36,712
-36,616
-36,54
-36,486
-36,455
-36,447
-36,463
-36,503
-36,568
-36,659
-36,774
-36,915
-37,08
-37,269
-37,481
-37,715
-37,97
-38,245
-38,537
-38,847
-39,171
-39,509
-39,858
-40,216
-40,581
-40,951
-41,322
-41,693
-42,059
-42,419
-42,769
-43,107
-43,431
-43,739
-44,029
-44,3
-44,551
-44,779
-44,984
-45,164
-45,32
-45,449
-45,553
-45,629
-45,679
-45,702
-45,699
-45,671
-45,618
-45,541
-45,442
-45,321
-45,179
-45,018
-44,838
-44,643
-44,432
-44,21
-43,977
-43,736
-43,491
-43,243
-42,996
-42,752
-42,513
-42,283
-42,064
-41,857
-41,665
-41,489
-41,333
-41,199
-41,09
-41,006
-40,951
-40,926
-40,933
-40,974
-41,051
-41,163
-41,312
-41,497
-41,72
-41,982
-42,284
-42,627
-43,009
-43,431
-43,891
-44,389
-44,923
-45,491
-46,087
-46,709
-47,355
-48,023
-48,714
-49,425
-50,153
-50,891
-51,636
-52,385
-53,137
-53,89
-54,639
-55,38
-56,107
-56,82
-57,517
-58,196
-58,847
-59,455
-60,005
-60,484
-60,887
-61,209
-61,451
-61,603
-61,648
-61,57
-61,35
-60,985
-60,488
-59,869
-59,129
-58,271
-57,29
-56,228
-55,175
-54,165
-53,149
-51,999
-50,562
-48,814
-46,898
-44,942
-42,931
-40,892
-38,995
-37,669
-37,53
-38,829
-41,272
-44,328
-47,6
-50,771
-53,475
-54,959
-54,009
-49,899
-42,85
-33,728
-23,562
-13,2
-3,256
5,357
11,058
12,609
9,789
3,249
-5,688
-15,774
-26,315
-36,545
-45,076
-50,649
-52,652
-51,107
-47,061
-41,884
-36,221
-30,526
-25,814
-22,166
-19,572
-19,262
-20,807
-25,033
-33,614
-43,958
-54,333
-62,269
-64,26
-62,904
-60,891
-60,248
-63,789
-69,519
-75,266
-80,352
-83,46
-85,246
-86,516
-87,111
-87,398
-87,626
-87,776
-88,049
-88,565
-89,198
-89,731
-89,704
-88,204
-84,298
-77,47
-67,394
-53,884
-36,893
-16,331
7,535
33,764
61,209
88,914
116,009
141,801
165,531
186,031
202,246
213,564
219,716
220,624
216,23
206,333
190,871
170,379
145,837
118,411
89,138
58,948
28,875
0,182
-25,653
-47,483
-64,783
-77,45
-85,569
-89,422
-89,408
-86,167
-80,817
-74,428
-67,797
-61,626
-56,273
-51,787
-48,285
-45,773
-43,987
-42,769
-41,846
-40,71
-39,201
-37,389
-35,253
-32,873
-30,298
-27,389
-24,263
-21,306
-18,701
-16,543
-14,89
-13,658
-12,859
-12,623
-12,904
-13,515
-14,31
-15,139
-15,912
-16,634
-17,258
-17,695
-17,9
-17,852
-17,539
-16,966
-16,121
-14,97
-13,496
-11,694
-9,572
-7,154
-4,463
-1,52
1,65
5,025
8,58
12,283
16,116
20,062
24,11
28,251
32,473
36,763
41,122
45,55
50,057
54,653
59,344
64,137
69,04
74,061
79,204
84,471
89,85
95,328
100,893
106,539
112,263
118,062
123,921
129,821
135,74
141,66
147,572
153,471
159,346
165,177
170,941
176,637
182,29
187,928
193,58
199,229
204,794
210,275
215,75
221,289
226,983
232,817
238,606
244,289
249,961
255,52
260,712
265,182
268,367
270,079
270,626
270,184
268,789
266,692
264,205
261,89
260,657
260,815
262,018
263,747
265,284
266,037
265,415
263,174
259,628
254,149
245,849
233,232
213,198
186,685
158,11
132,125
115,34
108,603
106,501
104,594
97,813
85,055
70,422
56,352
44,392
34,995
26,455
18,11
10,27
2,981
-3,518
-9,167
-14,239
-18,83
-22,864
-26,382
-29,505
-32,303
-34,844
-37,235
-39,506
-41,681
-43,955
-46,476
-49,112
-51,85
-54,773
-57,534
-60,536
-64,388
-68,211
-71,669
-73,296
-70,393
-63,541
-54,671
-47,617
-48,163
-58,381
-75,47
-92,943
-103,23
-101,333
-88,961
-73,095
-59,972
-54,408
-56,351
-61,1
-65,608
-67,886
-67,569
-66,553
-65,629
-64,777
-64,081
-63,235
-62,187
-61,208
-60,367
-59,622
-58,985
-58,458
-58,036
-57,715
-57,464
-57,235
-56,997
-56,779
-56,642
-56,563
-56,463
-56,267
-55,878
-55,308
-54,717
-54,16
-53,582
-53,069
-52,78
-52,904
-53,744
-55,298
-57,198
-59,249
-61,402
-63,481
-65,319
-66,654
-67,022
-66,393
-65,207
-63,723
-62,102
-60,526
-59,059
-57,899
-57,448
-57,748
-58,495
-59,488
-60,559
-61,598
-62,642
-63,626
-64,357
-64,81
-65,098
-65,302
-65,517
-65,778
-66,03
-66,263
-66,511
-66,777
-67,051
-67,32
-67,559
-67,762
-67,95
-68,131
-68,312
-68,494
-68,668
-68,832
-68,985
-69,127
-69,257
-69,375
-69,478
-69,566
-69,638
-69,693
-69,729
-69,745
-69,738
-69,707
-69,652
-69,576
-69,483
-69,373
-69,249
-69,111
-68,961
-68,804
-68,646
-68,487
-68,329
-68,174
-68,025
-67,891
-67,778
-67,687
-67,614
-67,554
-67,504
-67,467
-67,445
-67,445
-67,46
-67,476
-67,483
-67,469
-67,435
-67,401
-67,368
-67,328
-67,27
-67,177
-67,067
-67,016
-67,026
-67,019
-66,913
-66,589
-66,046
-65,448
-64,871
-64,247
-63,613
-63,127
-63,037
-63,783
-65,508
-67,857
-70,507
-73,266
-75,912
-78,207
-79,723
-79,662
-77,599
-73,852
-68,929
-63,394
-57,697
-52,091
-47,017
-43,302
-41,556
-41,732
-43,393
-45,844
-48,565
-51,352
-53,938
-55,837
-56,558
-55,934
-54,169
-51,75
-49,061
-46,245
-43,391
-40,626
-38,168
-36,177
-34,643
-33,415
-32,352
-31,415
-30,638
-30,085
-29,785
-29,74
-29,955
-30,455
-31,259
-32,359
-33,722
-35,287
-36,974
-38,72
-40,468
-42,168
-43,792
-45,313
-46,706
-47,963
-49,07
-50,018
-50,819
-51,494
-52,074
-52,622
-53,202
-53,883
-54,748
-55,855
-57,281
-59,12
-61,403
-64,084
-67,037
-70,084
-73,13
-76,194
-79,277
-82,281
-85,117
-87,751
-90,305
-92,965
-95,667
-98,033
-99,502
-99,615
-98,06
-94,546
-88,705
-80,163
-68,803
-54,915
-39,163
-22,166
-4,341
13,949
32,434
50,919
69,248
87,428
105,62
123,852
141,952
159,672
176,478
191,538
203,982
212,951
217,728
217,807
212,775
202,233
186,107
164,934
139,638
111,363
81,26
50,48
20,381
-7,395
-31,331
-50,539
-64,685
-73,853
-78,401
-78,847
-76,064
-71,388
-66,142
-61,218
-57,14
-54,075
-51,939
-50,611
-49,758
-48,764
-47,132
-44,618
-41,151
-36,879
-32,041
-26,818
-21,467
-16,321
-11,584
-7,373
-3,739
-0,645
1,93
3,98
5,553
6,712
7,511
8,013
8,265
8,311
8,22
8,053
7,863
7,696
7,573
7,508
7,536
7,692
8,027
8,595
9,418
10,508
11,876
13,512
15,406
17,533
19,842
22,295
24,861
27,521
30,279
33,141
36,096
39,136
42,25
45,427
48,685
52,043
55,513
59,113
62,864
66,795
70,961
75,401
80,136
85,172
90,495
96,092
101,958
108,082
114,439
120,998
127,707
134,517
141,395
148,306
155,214
162,076
168,842
175,474
181,959
188,298
194,498
200,561
206,484
212,26
217,893
223,39
228,757
233,996
239,098
244,048
248,832
253,438
257,843
262,016
265,907
269,445
272,561
275,188
277,258
278,722
279,537
279,664
279,078
277,758
275,685
272,849
269,24
264,85
259,68
253,739
247,046
239,652
231,621
223,025
213,95
204,468
194,634
184,508
174,144
163,594
152,916
142,172
131,421
120,737
110,206
99,905
89,915
80,281
71,025
62,157
53,669
45,56
37,833
30,487
23,517
16,924
10,71
4,869
-0,606
-5,751
-10,623
-15,278
-19,768
-24,125
-28,361
-32,475
-36,464
-40,314
-44,008
-47,526
-50,859
-54,007
-56,989
-59,827
-62,533
-65,101
-67,506
-69,724
-71,744
-73,558
-75,174
-76,607
-77,868
-78,977
-79,976
-80,897
-81,768
-82,61
-83,397
-84,093
-84,714
-85,276
-85,799
-86,313
-86,802
-87,227
-87,616
-88,006
-88,297
-88,364
-88,246
-87,914
-87,344
-86,785
-85,596
-83,16
-80,42
-77,674
-76,634
-79,344
-83,57
-87,827
-89,886
-86,688
-80,949
-74,978
-70,367
-69,736
-71,233
-72,978
-74,552
-74,8
-74,387
-74,167
-73,971
-73,908
-73,919
-73,832
-73,765
-73,816
-73,958
-74,184
-74,505
-74,915
-75,406
-75,974
-76,602
-77,269
-77,981
-78,746
-79,559
-80,419
-81,325
-82,27
-83,253
-84,27
-85,315
-86,38
-87,462
-88,553
-89,65
-90,747
-91,84
-92,925
-93,996
-95,049
-96,081
-97,086
-98,06
-98,999
-99,899
-100,758
-101,572
-102,338
-103,056
-103,724
-104,341
-104,906
-105,421
-105,885
-106,299
-106,664
-106,979
-107,247
-107,468
-107,645
-107,777
-107,868
-107,921
-107,936
-107,918
-107,87
-107,793
-107,691
-107,567
-107,423
-107,263
-107,088
-106,901
-106,706
-106,505
-106,302
-106,1
-105,9
-105,707
-105,521
-105,344
-105,179
-105,026
-104,885
-104,756
-104,64
-104,535
-104,444
-104,365
-104,298
-104,242
-104,195
-104,158
-104,13
-104,111
-104,1
-104,096
-104,097
-104,101
-104,11
-104,124
-104,141
-104,162
-104,183
-104,206
-104,235
-104,271
-104,316
-104,37
-104,425
-104,472
-104,502
-104,508
-104,483
-104,422
-104,319
-104,17
-103,972
-103,732
-103,453
-103,131
-102,759
-102,318
-101,784
-101,151
-100,439
-99,684
-98,938
-98,243
-97,604
-97,044
-96,607
-96,297
-96,099
-95,919
-95,566
-94,951
-94,109
-93,108
-92,057
-91,098
-90,304
-89,871
-90,218
-91,557
-93,902
-97,12
-100,783
-104,385
-107,553
-109,814
-110,448
-108,955
-104,996
-98,458
-89,833
-79,852
-69,234
-58,721
-49,13
-41,153
-35,468
-32,558
-32,371
-34,494
-38,125
-42,601
-47,546
-52,396
-57,302
-62,398
-66,745
-70,39
-72,208
-70,802
-67,909
-64,364
-63,335
-68,293
-78,112
-92,042
-105,356
-113,225
-115,14
-110,141
-101,831
-94,044
-87,963
-85,987
-87,536
-91,591
-98,22
-106,219
-115,386
-125,652
-136,024
-145,403
-151,984
-153,893
-150,206
-140,732
-125,901
-106,533
-83,472
-57,773
-31,005
-4,759
19,922
42,52
63,173
82,5
100,884
118,555
135,996
153,568
171,228
188,689
204,973
218,528
228,273
233,536
233,639
228,184
216,996
200,004
177,961
152,389
124,531
95,478
66,435
38,478
12,838
-9,176
-26,999
-40,762
-50,589
-56,83
-60,106
-61,006
-60,444
-59,403
-58,308
-57,23
-56,18
-54,815
-52,6
-49,213
-44,29
-37,701
-29,842
-21,164
-12,121
-3,479
3,892
9,429
12,782
14,039
13,769
12,407
10,268
7,839
5,677
4,189
3,61
3,843
4,47
5,238
6,089
6,958
7,769
8,453
8,964
9,396
10,002
10,961
12,337
14,153
16,384
19,013
22,06
25,509
29,288
33,331
37,582
41,994
46,565
51,29
56,14
61,089
66,106
71,149
76,195
81,216
86,165
91,002
95,693
100,21
104,548
108,704
112,671
116,44
119,999
123,348
126,504
129,494
132,345
135,1
137,804
140,52
143,341
146,349
149,606
153,163
157,055
161,319
166,007
171,177
176,868
183,105
189,888
197,205
205,047
213,381
222,153
231,277
240,635
250,116
259,634
269,111
278,468
287,615
296,43
304,781
312,55
319,627
325,909
331,301
335,696
339,008
341,18
342,186
342,025
340,694
338,164
334,412
329,429
323,225
315,856
307,4
297,939
287,568
276,399
264,556
252,188
239,444
226,453
213,332
200,196
187,164
174,385
162,006
150,16
138,965
128,506
118,838
110,006
102,034
94,915
88,627
83,12
78,333
74,212
70,697
67,724
65,217
63,077
61,197
59,476
57,816
56,139
54,388
52,513
50,484
48,288
45,924
43,405
40,755
37,994
35,147
32,24
29,304
26,384
23,529
20,786
18,205
15,821
13,659
11,735
10,057
8,622
7,424
6,448
5,675
5,088
4,668
4,398
4,262
4,236
4,297
4,419
4,579
4,755
4,934
5,106
5,261
5,397
5,509
5,598
5,667
5,717
5,747
5,759
5,75
5,722
5,676
5,615
5,54
5,454
5,358
5,252
5,138
5,015
4,883
4,743
4,593
4,432
4,262
4,083
3,896
3,701
3,499
3,29
3,075
2,855
2,629
2,398
2,162
1,919
1,668
1,409
1,142
0,866
0,581
0,288
-0,015
-0,326
-0,645
-0,971
-1,305
-1,649
-2,009
-2,388
-2,786
-3,206
-3,646
-4,107
-4,592
-5,101
-5,637
-6,203
-6,797
-7,423
-8,086
-8,785
-9,52
-10,289
-11,078
-11,88
-12,697
-13,528
-14,38
-15,264
-16,168
-17,057
-17,901
-18,666
-19,313
-19,84
-20,248
-20,51
-20,644
-20,754
-20,98
-21,427
-22,231
-23,362
-24,486
-25,509
-26,444
-26,848
-27,173
-27,964
-28,364
-28,9
-28,258
-23,329
-15,753
-7,127
-2,508
-10,978
-32,642
-63,188
-93,501
-109,569
-107,178
-89,11
-60,786
-30,757
-2,543
24,423
47,039
60,422
59,13
36,286
-6,152
-58,261
-107,769
-137,652
-139,854
-117,079
-77,7
-39,348
-13,191
-2,085
-5,215
-13,155
-20,468
-26,026
-28,192
-30,007
-32,944
-36,301
-40,69
-44,894
-47,619
-48,916
-48,766
-47,721
-46,6
-45,639
-44,848
-44,258
-43,914
-43,898
-44,211
-44,714
-45,245
-45,732
-46,181
-46,626
-47,075
-47,514
-47,946
-48,408
-48,911
-49,41
-49,873
-50,314
-50,833
-51,57
-52,564
-53,708
-54,859
-55,954
-56,948
-57,75
-58,039
-57,361
-55,497
-52,556
-48,939
-45,071
-41,202
-37,523
-34,529
-32,924
-33,173
-35,383
-39,04
-43,365
-47,903
-52,385
-56,337
-59,141
-60,253
-59,3
-56,626
-53,005
-48,886
-44,517
-40,157
-36,061
-32,596
-30,176
-28,732
-27,844
-27,281
-26,923
-26,754
-26,849
-27,144
-27,461
-27,799
-28,309
-29,092
-30,224
-31,698
-33,41
-35,31
-37,4
-39,656
-42,033
-44,48
-46,937
-49,37
-51,802
-54,253
-56,744
-59,288
-61,873
-64,506
-67,221
-70,059
-73,071
-76,29
-79,704
-83,31
-87,119
-91,071
-95,073
-98,933
-102,333
-105,061
-107,021
-108,128
-108,347
-107,664
-106,027
-103,6
-100,732
-97,488
-93,723
-89,166
-83,4
-76,209
-67,518
-56,967
-44,068
-28,718
-11,082
8,353
28,911
50,345
72,504
94,885
116,843
137,852
157,531
175,849
192,679
207,208
218,51
225,852
228,635
226,496
219,015
205,524
185,893
160,912
131,749
99,845
66,741
33,782
2,585
-24,893
-47,331
-64,21
-75,499
-81,722
-83,633
-81,961
-77,863
-72,891
-68,161
-64,332
-61,738
-60,27
-59,735
-59,99
-60,622
-61,024
-60,851
-59,97
-58,414
-56,444
-54,286
-52,088
-50,071
-48,471
-47,405
-46,905
-46,925
-47,332
-48,016
-48,884
-49,821
-50,712
-51,448
-51,935
-52,105
-51,906
-51,297
-50,251
-48,75
-46,8
-44,432
-41,687
-38,611
-35,25
-31,645
-27,841
-23,889
-19,856
-15,81
-11,809
-7,901
-4,132
-0,545
2,82
5,922
8,752
11,326
13,669
15,811
17,78
19,593
21,276
22,864
24,406
25,957
27,56
29,253
31,079
33,093
35,361
37,965
40,955
44,351
48,165
52,395
57,041
62,11
67,598
73,489
79,753
86,36
93,282
100,498
107,983
115,691
123,554
131,482
139,403
147,271
155,045
162,697
170,195
177,498
184,569
191,384
197,919
204,153
210,059
215,592
220,702
225,351
229,509
233,167
236,301
238,874
240,84
242,144
242,743
242,604
241,698
239,99
237,446
234,034
229,724
224,51
218,41
211,452
203,671
195,109
185,82
175,879
165,376
154,415
143,093
131,506
119,744
107,905
96,096
84,432
73,036
62,02
51,471
41,456
32,028
23,222
15,061
7,549
0,67
-5,606
-11,31
-16,475
-21,138
-25,334
-29,115
-32,556
-35,742
-38,761
-41,691
-44,574
-47,423
-50,253
-53,077
-55,868
-58,61
-61,288
-63,859
-66,342
-68,831
-71,372
-73,961
-76,703
-79,654
-82,628
-85,597
-88,482
-90,686
-92,728
-95,341
-97,561
-99,337
-98,307
-90,77
-78,699
-64,797
-55,6
-60,264
-78,54
-106,051
-132,308
-143,389
-135,294
-110,042
-77,881
-53,07
-42,366
-47,94
-64,104
-80,89
-92,926
-96,883
-94,061
-89,212
-84,593
-81,667
-80,655
-80,066
-79,483
-79,01
-78,586
-78,484
-78,745
-79,133
-79,554
-79,987
-80,382
-80,73
-81,053
-81,36
-81,667
-82,007
-82,385
-82,788
-83,21
-83,65
-84,1
-84,556
-85,014
-85,465
-85,906
-86,335
-86,75
-87,148
-87,527
-87,884
-88,215
-88,518
-88,792
-89,034
-89,244
-89,419
-89,559
-89,664
-89,733
-89,766
-89,764
-89,728
-89,658
-89,558
-89,427
-89,268
-89,083
-88,875
-88,647
-88,401
-88,141
-87,869
-87,588
-87,302
-87,013
-86,725
-86,44
-86,161
-85,89
-85,631
-85,385
-85,155
-84,943
-84,752
-84,583
-84,438
-84,318
-84,225
-84,159
-84,121
-84,113
-84,133
-84,183
-84,261
-84,367
-84,5
-84,66
-84,843
-85,05
-85,278
-85,525
-85,788
-86,067
-86,358
-86,659
-86,967
-87,281
-87,598
-87,916
-88,232
-88,545
-88,852
-89,152
-89,443
-89,723
-89,991
-90,246
-90,486
-90,71
-90,918
-91,108
-91,281
-91,435
-91,571
-91,687
-91,786
-91,866
-91,929
-91,975
-92,005
-92,021
-92,023
-92,013
-91,991
-91,959
-91,918
-91,869
-91,814
-91,754
-91,691
-91,627
-91,562
-91,498
-91,435
-91,376
-91,319
-91,267
-91,218
-91,175
-91,137
-91,104
-91,078
-91,06
-91,049
-91,047
-91,054
-91,071
-91,096
-91,13
-91,172
-91,221
-91,275
-91,334
-91,396
-91,463
-91,534
-91,609
-91,689
-91,775
-91,867
-91,965
-92,069
-92,176
-92,283
-92,389
-92,493
-92,595
-92,7
-92,807
-92,915
-93,023
-93,128
-93,226
-93,307
-93,362
-93,371
-93,323
-93,21
-93,028
-92,78
-92,467
-92,091
-91,655
-91,158
-90,6
-89,985
-89,315
-88,594
-87,831
-87,047
-86,27
-85,546
-84,914
-84,398
-84,017
-83,772
-83,656
-83,661
-83,772
-83,965
-84,223
-84,525
-84,845
-85,168
-85,461
-85,679
-85,763
-85,628
-85,188
-84,386
-83,177
-81,538
-79,47
-76,977
-74,082
-70,832
-67,268
-63,438
-59,403
-55,209
-50,918
-46,616
-42,398
-38,385
-34,71
-31,468
-28,737
-26,579
-25,023
-24,094
-23,797
-24,104
-24,981
-26,383
-28,255
-30,543
-33,188
-36,105
-39,203
-42,383
-45,539
-48,598
-51,504
-54,205
-56,662
-58,845
-60,742
-62,366
-63,751
-64,944
-65,993
-66,965
-67,951
-69,012
-70,152
-71,319
-72,365
-73,119
-73,47
-73,261
-72,314
-70,635
-68,362
-65,811
-63,536
-61,984
-61,391
-62,004
-63,963
-66,956
-70,371
-73,211
-74,033
-71,61
-64,996
-53,219
-35,614
-12,281
16,2
48,626
82,933
117,235
149,81
178,46
202,175
220,717
232,942
239,062
238,437
229,994
217,084
202,631
189,98
182,576
177,357
171,201
162,306
148,887
133,208
116,504
96,412
70,35
37,385
0,715
-30,898
-47,988
-46,888
-30,827
-8,888
9,28
19,114
21,36
19,86
17,554
15,192
12,169
7,554
1,876
-3,723
-8,498
-11,726
-13,022
-12,451
-10,13
-6,515
-2,452
1,538
5,246
8,527
11,34
13,66
15,438
16,796
18,008
19,235
20,54
21,945
23,422
24,991
26,703
28,571
30,56
32,619
34,706
36,807
38,929
41,072
43,231
45,398
47,579
49,805
52,099
54,482
56,963
59,537
62,201
64,963
67,837
70,849
74,024
77,377
80,922
84,67
88,625
92,791
97,16
101,706
106,411
111,266
116,259
121,394
126,666
132,061
137,568
143,166
148,832
154,547
160,289
166,038
171,78
177,502
183,197
188,863
194,493
200,075
205,603
211,066
216,458
221,79
227,072
232,322
237,576
242,86
248,199
253,621
259,139
264,763
270,497
276,334
282,268
288,291
294,384
300,522
306,667
312,751
318,692
324,395
329,743
334,625
338,933
342,549
345,375
347,32
348,299
348,25
347,119
344,856
341,428
336,812
330,991
323,993
315,877
306,733
296,688
285,845
274,273
262,104
249,536
236,827
224,258
211,988
200,02
188,378
177,203
166,563
156,382
146,323
135,86
124,795
113,399
102,118
91,277
81,149
72,028
64,569
59,767
58,074
59,157
62,19
66,234
70,573
74,702
77,827
78,788
76,932
72,322
65,623
57,839
49,667
41,465
33,722
27,144
22,189
18,974
17,189
16,194
15,6
15,279
15,099
14,897
14,529
13,898
13,087
12,337
11,78
11,437
11,29
11,279
11,38
11,6
11,914
12,261
12,597
12,892
13,141
13,361
13,561
13,736
13,883
13,995
14,07
14,115
14,131
14,124
14,092
14,036
13,953
13,844
13,708
13,547
13,359
13,144
12,899
12,625
12,325
12,003
11,662
11,301
10,924
10,531
10,125
9,707
9,28
8,844
8,401
7,953
7,502
7,051
6,598
6,145
5,691
5,235
4,778
4,319
3,855
3,384
2,906
2,423
1,935
1,444
0,949
0,449
-0,058
-0,574
-1,099
-1,631
-2,172
-2,725
-3,29
-3,866
-4,449
-5,035
-5,625
-6,226
-6,846
-7,494
-8,169
-8,871
-9,6
-10,349
-11,124
-11,933
-12,777
-13,661
-14,58
-15,519
-16,479
-17,462
-18,462
-19,474
-20,452
-21,319
-22,09
-22,854
-23,694
-24,711
-25,87
-27,003
-28,093
-29,209
-30,247
-30,959
-30,95
-29,798
-27,556
-24,697
-21,556
-18,355
-15,384
-13,062
-12,206
-13,65
-17,474
-23,091
-29,742
-36,689
-43,432
-49,49
-53,864
-55,567
-54,277
-50,271
-44,446
-37,882
-31,175
-24,749
-19,378
-15,773
-14,389
-15,42
-18,267
-21,989
-26,102
-30,304
-34,244
-37,697
-40,332
-41,774
-42,207
-42,116
-41,777
-41,401
-41,06
-40,669
-40,334
-40,299
-40,636
-41,293
-42,142
-42,992
-43,764
-44,533
-45,322
-45,957
-46,319
-46,422
-46,344
-46,456
-46,607
-45,592
-43,47
-41,341
-41,208
-47,191
-59,164
-72,626
-82,88
-83,358
-73,329
-58,941
-45,076
-36,775
-35,437
-37,043
-39,464
-41,711
-43,243
-45,455
-48,662
-52,281
-56,143
-59,83
-62,894
-65,065
-66,177
-66,251
-65,648
-64,773
-63,895
-63,273
-63,05
-63,32
-64,194
-65,668
-67,547
-69,52
-71,004
-71,224
-69,844
-66,881
-62,404
-56,845
-50,815
-45,005
-40,952
-39,721
-40,712
-43,425
-47,529
-54,999
-70,931
-97,281
-131,436
-164,448
-182,431
-177,817
-150,94
-110,151
-69,898
-39,049
-20,408
-12,66
-10,754
-12,711
-19,231
-30,547
-46,89
-66,854
-87,475
-106,464
-122,054
-132,478
-136,66
-134,426
-126,4
-114,257
-100,289
-86,059
-72,687
-61,477
-53,495
-49,49
-49,635
-52,993
-57,998
-63,637
-69,286
-74,334
-78,292
-80,597
-80,933
-79,683
-77,619
-75,232
-72,725
-70,202
-67,757
-65,52
-63,408
-61,256
-58,954
-56,423
-54,028
-51,446
-47,333
-42,08
-37,049
-34,774
-39,449
-50,231
-62,562
-71,626
-71,443
-62,493
-50,24
-38,996
-33,874
-35,87
-42,23
-51,037
-58,949
-64,592
-70,002
-78,799
-95,892
-122,01
-151,516
-173,974
-178,759
-162,302
-129,478
-91,439
-59,226
-38,361
-29,024
-27,632
-31,122
-38,873
-51,297
-68,951
-90,981
-114,89
-137,768
-156,887
-170,102
-176,165
-174,624
-165,668
-150,229
-129,852
-106,297
-81,409
-56,86
-33,841
-13,205
4,608
19,854
33,294
45,98
59,135
73,635
89,967
108,578
129,499
152,008
174,812
196,123
213,94
226,519
232,229
229,56
217,516
196,7
169,336
136,992
101,016
61,854
18,404
-26,679
-68,496
-102,24
-121,727
-124,607
-111,987
-86,794
-55,122
-24,041
-2,245
4,315
-5,828
-30,588
-59,608
-82,525
-93,578
-88,977
-74,063
-57,596
-44,253
-38,231
-38,804
-41,328
-43,91
-45,219
-44,895
-44,599
-44,847
-45,399
-46,281
-47,148
-47,792
-48,405
-49,089
-49,694
-50,096
-50,342
-50,347
-50,03
-49,606
-48,331
-45,517
-42,132
-38,472
-36,3
-37,739
-40,49
-43,024
-43,058
-37,436
-28,973
-20,067
-12,376
-8,621
-6,912
-5,329
-3,473
-0,194
3,777
7,525
11,201
14,687
18,042
21,444
24,771
27,931
30,964
33,893
36,731
39,507
42,254
45,013
47,845
50,831
54,027
57,47
61,198
65,231
69,581
74,258
79,265
84,593
90,227
96,147
102,327
108,742
115,366
122,166
129,102
136,128
143,195
150,267
157,314
164,314
171,244
178,086
184,819
191,428
197,901
204,225
210,381
216,354
222,112
227,614
232,814
237,652
242,064
245,984
249,34
252,056
254,065
255,302
255,714
255,257
253,886
251,561
248,246
243,908
238,543
232,173
224,847
216,638
207,632
197,922
187,616
176,834
165,693
154,304
142,771
131,185
119,648
108,268
97,161
86,444
76,204
66,501
57,373
48,839
40,903
33,56
26,784
20,534
14,767
9,448
4,545
0,032
-4,132
-8,002
-11,65
-15,143
-18,531
-21,849
-25,12
-28,36
-31,579
-34,777
-37,938
-41,039
-44,056
-46,976
-49,786
-52,48
-55,037
-57,433
-59,632
-61,607
-63,343
-64,83
-66,065
-67,047
-67,781
-68,277
-68,557
-68,643
-68,558
-68,321
-67,947
-67,453
-66,862
-66,197
-65,483
-64,742
-63,989
-63,24
-62,506
-61,799
-61,128
-60,497
-59,908
-59,362
-58,862
-58,409
-58,006
-57,654
-57,352
-57,098
-56,89
-56,726
-56,604
-56,521
-56,474
-56,46
-56,475
-56,517
-56,583
-56,671
-56,776
-56,893
-57,02
-57,151
-57,283
-57,413
-57,535
-57,649
-57,75
-57,837
-57,909
-57,964
-58
-58,017
-58,013
-57,989
-57,944
-57,877
-57,789
-57,682
-57,555
-57,411
-57,251
-57,077
-56,892
-56,698
-56,498
-56,293
-56,088
-55,883
-55,684
-55,491
-55,309
-55,139
-54,985
-54,85
-54,734
-54,641
-54,571
-54,526
-54,505
-54,51
-54,539
-54,592
-54,669
-54,768
-54,889
-55,03
-55,191
-55,369
-55,565
-55,775
-55,998
-56,232
-56,473
-56,721
-56,971
-57,223
-57,472
-57,718
-57,958
-58,189
-58,41
-58,619
-58,813
-58,99
-59,147
-59,284
-59,398
-59,489
-59,555
-59,597
-59,614
-59,608
-59,579
-59,529
-59,459
-59,37
-59,263
-59,139
-58,999
-58,844
-58,674
-58,493
-58,3
-58,099
-57,892
-57,681
-57,469
-57,258
-57,051
-56,848
-56,651
-56,459
-56,273
-56,092
-55,916
-55,747
-55,585
-55,43
-55,283
-55,148
-55,024
-54,911
-54,808
-54,708
-54,61
-54,51
-54,409
-54,308
-54,21
-54,122
-54,052
-54,009
-53,999
-54,024
-54,081
-54,162
-54,26
-54,364
-54,468
-54,572
-54,672
-54,766
-54,85
-54,919
-54,966
-54,972
-54,916
-54,767
-54,504
-54,117
-53,605
-52,978
-52,25
-51,446
-50,59
-49,704
-48,812
-47,93
-47,071
-46,245
-45,463
-44,752
-44,148
-43,696
-43,431
-43,374
-43,537
-43,921
-44,523
-45,317
-46,269
-47,335
-48,471
-49,653
-50,86
-52,083
-53,31
-54,519
-55,678
-56,748
-57,698
-58,506
-59,153
-59,62
-59,89
-59,971
-59,888
-59,683
-59,399
-59,059
-58,681
-58,268
-57,818
-57,33
-56,804
-56,246
-55,678
-55,111
-54,556
-54,03
-53,533
-53,073
-52,687
-52,324
-51,876
-51,262
-50,377
-49,226
-47,966
-46,654
-45,247
-43,854
-42,651
-41,839
-41,73
-42,317
-43,234
-44,297
-45,473
-46,604
-47,534
-47,998
-47,527
-46,087
-44,104
-41,82
-39,368
-36,893
-34,427
-32,147
-30,44
-29,341
-28,537
-27,821
-27,025
-26,051
-24,96
-23,719
-22,18
-20,362
-18,434
-16,541
-14,831
-13,399
-12,24
-11,389
-10,933
-10,911
-11,325
-12,166
-13,379
-14,925
-16,803
-18,973
-21,346
-23,867
-26,484
-29,216
-32,198
-35,47
-38,95
-42,548
-46,136
-49,545
-52,649
-55,168
-56,64
-56,901
-56,078
-54,432
-52,452
-50,596
-49,116
-48,442
-49,162
-51,386
-54,924
-59,413
-64,117
-68,476
-72,318
-75,297
-77,015
-77,515
-76,846
-75,053
-72,466
-69,085
-64,522
-58,555
-50,863
-40,877
-28,353
-13,244
4,474
24,453
46,216
69,363
93,23
117,073
140,362
162,653
183,747
203,51
221,359
236,673
249,012
257,606
261,641
260,465
252,913
238,832
219,849
196,35
168,248
135,208
95,027
49,893
6,208
-30,084
-52,2
-59,016
-55,905
-47,646
-39,465
-33,675
-28,364
-22,859
-16,786
-10,5
-5,89
-3,721
-3,893
-5,805
-8,227
-10,289
-11,645
-12,107
-11,706
-10,501
-8,512
-6,098
-3,691
-1,593
-0,014
1,03
1,633
1,83
1,64
1,219
0,713
0,235
-0,088
-0,22
-0,153
0,17
0,795
1,744
3,055
4,756
6,843
9,331
12,22
15,479
19,088
23,003
27,17
31,55
36,101
40,782
45,567
50,419
55,297
60,165
64,956
69,601
74,04
78,208
82,065
85,598
88,782
91,63
94,177
96,449
98,527
100,482
102,281
103,906
105,331
106,519
107,61
108,762
109,979
111,337
113,059
115,367
118,646
123,183
128,755
135,082
142,046
149,456
157,074
164,568
171,246
176,628
180,979
184,737
188,329
192,17
196,482
201,628
208,375
217,211
227,935
240,04
252,785
265,526
277,951
289,632
299,872
308,17
314,39
318,69
321,535
323,271
323,971
323,752
322,797
321,24
319,174
316,538
313,099
308,709
303,337
296,997
289,772
281,734
272,926
263,437
253,387
242,89
232,059
220,972
209,67
198,199
186,603
174,942
163,304
151,78
140,468
129,459
118,825
108,625
98,915
89,726
81,081
73,001
65,482
58,519
52,109
46,233
40,908
36,18
32,037
28,386
25,04
21,783
18,509
15,257
12,097
8,998
5,927
3,005
0,589
-0,819
-0,949
0,004
1,535
3,256
4,954
6,348
6,892
5,752
2,302
-3,346
-10,42
-18,105
-25,891
-33,393
-40,105
-45,194
-47,857
-47,956
-46,106
-43,16
-39,705
-36,071
-32,522
-29,517
-27,641
-27,145
-27,774
-29,012
-30,461
-31,948
-33,434
-34,851
-36,001
-36,743
-37,118
-37,304
-37,464
-37,664
-37,881
-38,059
-38,194
-38,308
-38,407
-38,471
-38,468
-38,381
-38,213
-37,988
-37,726
-37,434
-37,115
-36,766
-36,386
-35,981
-35,555
-35,117
-34,67
-34,216
-33,755
-33,287
-32,815
-32,341
-31,87
-31,401
-30,936
-30,477
-30,03
-29,6
-29,194
-28,816
-28,469
-28,157
-27,883
-27,65
-27,46
-27,318
-27,224
-27,18
-27,189
-27,252
-27,369
-27,543
-27,772
-28,056
-28,395
-28,788
-29,233
-29,731
-30,278
-30,874
-31,516
-32,203
-32,932
-33,7
-34,503
-35,339
-36,205
-37,098
-38,015
-38,953
-39,905
-40,869
-41,841
-42,818
-43,796
-44,77
-45,736
-46,692
-47,637
-48,574
-49,502
-50,421
-51,328
-52,22
-53,098
-53,965
-54,825
-55,676
-56,519
-57,35
-58,172
-58,99
-59,808
-60,621
-61,423
-62,2
-62,945
-63,653
-64,329
-64,973
-65,584
-66,147
-66,645
-67,067
-67,413
-67,7
-67,946
-68,151
-68,31
-68,415
-68,497
-68,634
-68,863
-69,136
-69,327
-69,293
-68,989
-68,549
-68,103
-67,634
-67,184
-66,915
-67,19
-68,587
-71,413
-75,437
-80,233
-85,446
-90,632
-95,358
-98,899
-100,07
-98,067
-92,863
-84,924
-75,057
-64,27
-53,379
-43,472
-36,117
-32,528
-33,334
-38,5
-47,181
-58,172
-70,434
-82,723
-93,627
-101,992
-106,81
-107,646
-104,942
-99,53
-92,313
-84,352
-76,519
-69,505
-64,107
-60,787
-59,492
-59,939
-61,608
-63,873
-66,384
-68,914
-71,162
-72,97
-74,288
-75,125
-75,658
-76,114
-76,576
-77,06
-77,568
-78,053
-78,503
-78,932
-79,308
-79,591
-79,764
-79,819
-79,771
-79,656
-79,498
-79,305
-79,079
-78,819
-78,535
-78,253
-78,009
-77,833
-77,747
-77,762
-77,886
-78,129
-78,495
-78,977
-79,563
-80,225
-80,929
-81,666
-82,414
-83,149
-83,892
-84,636
-85,335
-85,949
-86,394
-86,563
-86,438
-86,012
-85,103
-83,565
-81,496
-78,989
-76,233
-73,684
-70,751
-66,798
-62,798
-58,954
-56,849
-58,301
-60,463
-61,267
-58,094
-47,768
-33,43
-18,107
-4,382
4,005
7,852
7,902
3,714
-3,804
-15,105
-30,135
-47,125
-64,604
-80,997
-94,471
-103,858
-108,529
-108,212
-103,624
-96,347
-87,795
-79,13
-71,622
-66,303
-63,975
-65,24
-69,743
-76,313
-84,003
-92,137
-99,97
-106,693
-111,356
-113,11
-111,952
-108,629
-103,787
-97,797
-91,222
-85,165
-81,066
-80,216
-82,485
-86,127
-89,562
-92,356
-96,095
-103,044
-113,105
-123,071
-126,155
-114,962
-86,382
-40,687
18,082
82,816
148,522
207,97
251,298
271,236
261,18
223,188
169,821
116,898
82,212
76,22
99,173
142,02
187,896
220,672
227,694
207,189
166,863
116,094
64,906
16,068
-31,907
-77,49
-116,809
-143,06
-150,816
-141,012
-120,773
-98,342
-79,207
-65,052
-53,403
-42,195
-31,819
-23,991
-20,715
-21,769
-26,274
-33,403
-42,948
-57,34
-75,543
-92,391
-102,651
-99,536
-82,199
-57,383
-31,201
-9,823
4,179
13,658
19,658
22,045
20,559
13,883
2,575
-11,444
-26,607
-41,292
-53,875
-62,74
-66,383
-64,066
-56,227
-44,206
-29,667
-14,179
0,911
14,268
24,236
29,301
28,854
23,119
13,958
4,442
-4,244
-11,855
-19,143
-28,554
-38,1
-43,178
-40,13
-24,389
2,225
32,588
61,189
81,933
92,798
96,743
95,758
92,159
87,804
82,656
77,129
72,204
68,891
68,413
71,573
78,245
87,504
98,122
109,261
120,384
131,033
140,794
149,142
155,813
161,114
165,663
169,918
174,126
178,39
182,749
187,379
192,443
197,898
203,561
209,266
214,919
220,524
226,132
231,734
237,286
242,755
248,103
253,295
258,268
262,913
267,105
270,727
273,669
275,85
277,201
277,667
277,206
275,784
273,373
269,952
265,504
260,026
253,547
246,107
237,774
228,641
218,807
208,386
197,504
186,269
174,786
163,148
151,434
139,723
128,093
116,626
105,414
94,54
84,071
74,066
64,57
55,605
47,193
39,334
32,006
25,201
18,901
13,096
7,784
2,956
-1,398
-5,291
-8,752
-11,817
-14,513
-16,879
-18,944
-20,728
-22,263
-23,564
-24,636
-25,499
-26,164
-26,644
-26,965
-27,152
-27,236
-27,259
-27,247
-27,22
-27,198
-27,19
-27,215
-27,3
-27,457
-27,697
-28,035
-28,473
-29,017
-29,676
-30,444
-31,305
-32,237
-33,198
-34,158
-35,103
-36,011
-36,868
-37,656
-38,343
-38,915
-39,365
-39,685
-39,875
-39,933
-39,85
-39,634
-39,303
-38,879
-38,395
-37,878
-37,339
-36,795
-36,258
-35,742
-35,266
-34,84
-34,464
-34,142
-33,875
-33,664
-33,515
-33,426
-33,386
-33,384
-33,407
-33,443
-33,49
-33,542
-33,594
-33,645
-33,69
-33,73
-33,77
-33,811
-33,854
-33,9
-33,947
-33,999
-34,056
-34,124
-34,203
-34,297
-34,406
-34,53
-34,671
-34,829
-35,002
-35,189
-35,387
-35,596
-35,815
-36,044
-36,281
-36,526
-36,78
-37,043
-37,314
-37,594
-37,883
-38,18
-38,484
-38,796
-39,116
-39,441
-39,774
-40,111
-40,454
-40,802
-41,154
-41,51
-41,869
-42,23
-42,594
-42,959
-43,327
-43,696
-44,067
-44,439
-44,813
-45,188
-45,566
-45,945
-46,326
-46,709
-47,093
-47,477
-47,861
-48,244
-48,625
-49,002
-49,375
-49,742
-50,101
-50,452
-50,792
-51,121
-51,436
-51,737
-52,024
-52,294
-52,546
-52,782
-52,999
-53,197
-53,376
-53,536
-53,676
-53,797
-53,899
-53,981
-54,044
-54,089
-54,115
-54,123
-54,114
-54,088
-54,047
-53,991
-53,922
-53,842
-53,752
-53,655
-53,553
-53,449
-53,344
-53,243
-53,148
-53,061
-52,982
-52,914
-52,861
-52,826
-52,811
-52,816
-52,839
-52,879
-52,943
-53,029
-53,122
-53,211
-53,284
-53,34
-53,396
-53,453
-53,49
-53,517
-53,576
-53,697
-53,915
-54,232
-54,587
-54,957
-55,398
-55,848
-56,083
-56,048
-55,803
-55,31
-54,795
-53,836
-51,078
-46,785
-42,213
-39,388
-42,165
-50,398
-60,217
-67,79
-67,666
-59,396
-48,169
-38,004
-33,208
-34,624
-38,388
-42,094
-44,134
-43,977
-43,185
-42,478
-41,779
-41,117
-40,238
-39,067
-37,813
-36,55
-35,247
-33,915
-32,584
-31,261
-29,957
-28,681
-27,419
-26,182
-25,023
-23,984
-23,1
-22,425
-21,988
-21,81
-21,908
-22,276
-22,904
-23,779
-24,875
-26,159
-27,609
-29,202
-30,933
-32,802
-34,797
-36,903
-39,101
-41,364
-43,691
-46,094
-48,598
-51,242
-54,055
-57,077
-60,369
-63,95
-67,775
-71,729
-75,599
-79,168
-82,294
-84,852
-86,718
-87,913
-88,563
-88,882
-89,23
-89,863
-90,786
-91,856
-92,799
-93,033
-91,81
-88,357
-81,754
-71,352
-57,002
-38,812
-17,125
7,071
32,442
57,852
81,868
104,042
125,392
145,603
163,705
177,988
184,889
184,663
181,623
181,122
189,449
207,677
229,965
247,641
252,476
240,006
211,301
172,243
127,989
82,537
39,244
-1,923
-39,916
-72,536
-98,922
-117,371
-127,003
-128,767
-124,011
-114,588
-102,812
-90,583
-79,07
-69,156
-61,328
-55,496
-51,098
-47,258
-42,961
-37,502
-30,953
-23,538
-15,309
-6,658
1,585
8,512
13,059
15,199
16,719
18,039
18,289
15,659
6,564
-8,073
-23,383
-34,511
-35,553
-26,831
-14,354
-2,65
3,137
2,714
0,723
-1,557
-2,539
-3,001
-6,527
-11,358
-15,785
-17,57
-13,164
-5,194
3,659
11,475
15,408
17,287
19,022
21,099
24,721
29,139
33,463
37,874
42,24
46,637
51,261
55,967
60,652
65,329
69,973
74,564
79,111
83,623
88,121
92,632
97,182
101,773
106,415
111,122
115,908
120,778
125,724
130,743
135,841
141,03
146,341
151,792
157,379
163,095
168,929
174,865
180,898
187,022
193,209
199,436
205,684
211,936
218,19
224,438
230,659
236,821
242,88
248,796
254,544
260,1
265,433
270,507
275,267
279,646
283,595
287,059
289,971
292,262
293,846
294,637
294,579
293,621
291,722
288,846
284,941
279,963
273,892
266,721
258,472
249,194
238,94
227,779
215,812
203,151
189,933
176,305
162,388
148,308
134,193
120,174
106,397
93,004
80,118
67,854
56,318
45,584
35,718
26,762
18,719
11,583
5,319
-0,12
-4,772
-8,685
-11,921
-14,542
-16,623
-18,241
-19,462
-20,366
-21,045
-21,575
-22,031
-22,471
-22,931
-23,451
-24,053
-24,745
-25,537
-26,425
-27,4
-28,46
-29,602
-30,824
-32,13
-33,506
-34,921
-36,351
-37,767
-39,142
-40,456
-41,674
-42,771
-43,738
-44,57
-45,273
-45,856
-46,315
-46,645
-46,841
-46,891
-46,794
-46,561
-46,194
-45,707
-45,117
-44,445
-43,723
-42,981
-42,234
-41,493
-40,762
-40,042
-39,342
-38,668
-38,026
-37,426
-36,872
-36,371
-35,929
-35,549
-35,226
-34,955
-34,724
-34,521
-34,34
-34,18
-34,039
-33,918
-33,817
-33,737
-33,683
-33,656
-33,658
-33,688
-33,746
-33,83
-33,943
-34,088
-34,266
-34,481
-34,735
-35,03
-35,365
-35,742
-36,159
-36,615
-37,108
-37,635
-38,194
-38,783
-39,402
-40,049
-40,722
-41,42
-42,141
-42,883
-43,644
-44,422
-45,212
-46,013
-46,821
-47,634
-48,449
-49,264
-50,075
-50,88
-51,677
-52,463
-53,236
-53,995
-54,736
-55,459
-56,162
-56,844
-57,506
-58,145
-58,763
-59,36
-59,935
-60,489
-61,023
-61,536
-62,027
-62,497
-62,945
-63,37
-63,774
-64,156
-64,516
-64,856
-65,176
-65,478
-65,763
-66,03
-66,279
-66,51
-66,724
-66,919
-67,095
-67,25
-67,382
-67,491
-67,575
-67,633
-67,66
-67,653
-67,604
-67,51
-67,368
-67,178
-66,94
-66,658
-66,335
-65,981
-65,607
-65,226
-64,844
-64,469
-64,104
-63,756
-63,434
-63,142
-62,887
-62,67
-62,484
-62,323
-62,176
-62,022
-61,834
-61,584
-61,233
-60,758
-60,141
-59,367
-58,427
-57,316
-56,029
-54,577
-52,978
-51,252
-49,43
-47,548
-45,651
-43,802
-42,076
-40,539
-39,252
-38,257
-37,585
-37,27
-37,348
-37,843
-38,758
-40,065
-41,715
-43,661
-45,875
-48,332
-50,971
-53,682
-56,368
-59,007
-61,679
-64,507
-67,54
-70,687
-73,822
-76,907
-79,93
-82,833
-85,37
-87,156
-87,948
-87,835
-87,189
-86,382
-85,73
-85,46
-85,946
-87,772
-91,402
-96,898
-103,777
-111,277
-118,599
-125,133
-130,253
-133,137
-133,006
-129,289
-121,929
-111,428
-98,506
-83,704
-67,559
-50,713
-33,678
-17,07
-1,519
13,026
27,01
40,468
54,372
69,729
85,814
102,697
119,024
131,812
141,375
148,665
155,835
166,594
180,717
194,067
200,281
193,672
170,764
132,794
85,278
32,014
-20,552
-65,787
-100,905
-121,702
-129,934
-131,019
-127,195
-121,617
-112,795
-98,799
-83,27
-69,791
-63,996
-68,216
-77,735
-87,923
-93,858
-93,66
-90,43
-86,458
-83,336
-81,605
-79,875
-77,621
-75,109
-72,57
-70,497
-69,04
-67,995
-67,257
-66,765
-66,451
-66,249
-66,095
-65,931
-65,709
-65,421
-65,056
-64,596
-64,051
-63,431
-62,737
-61,975
-61,15
-60,259
-59,297
-58,246
-57,07
-55,746
-54,261
-52,611
-50,808
-48,858
-46,758
-44,508
-42,093
-39,503
-36,734
-33,777
-30,628
-27,297
-23,807
-20,2
-16,529
-12,822
-9,097
-5,356
-1,588
2,22
6,083
10,031
14,081
18,248
22,544
26,965
31,517
36,212
41,068
46,124
51,412
56,946
62,729
68,75
74,983
81,392
87,927
94,518
101,111
107,657
114,116
120,47
126,7
132,791
138,734
144,507
150,089
155,466
160,627
165,563
170,279
174,778
179,074
183,196
187,161
190,981
194,658
198,166
201,463
204,492
207,179
209,453
211,247
212,491
213,112
213,049
212,242
210,646
208,22
204,915
200,682
195,474
189,258
182,033
173,826
164,685
154,676
143,882
132,394
120,323
107,796
94,929
81,827
68,587
55,299
42,064
29,002
16,236
3,873
-7,993
-19,279
-29,914
-39,827
-48,972
-57,326
-64,889
-71,691
-77,753
-83,087
-87,711
-91,645
-94,92
-97,585
-99,691
-101,278
-102,398
-103,116
-103,502
-103,652
-103,64
-103,522
-103,349
-103,148
-102,947
-102,778
-102,662
-102,61
-102,64
-102,76
-102,987
-103,353
-103,864
-104,512
-105,278
-106,116
-106,988
-107,863
-108,701
-109,473
-110,163
-110,752
-111,24
-111,633
-111,928
-112,122
-112,202
-112,147
-111,947
-111,603
-111,12
-110,518
-109,82
-109,049
-108,24
-107,425
-106,622
-105,847
-105,103
-104,386
-103,699
-103,043
-102,42
-101,842
-101,315
-100,84
-100,417
-100,051
-99,743
-99,487
-99,275
-99,085
-98,895
-98,708
-98,532
-98,34
-98,113
-97,833
-97,481
-97,077
-96,657
-96,2
-95,665
-95,153
-94,785
-94,492
-94,284
-94,187
-93,943
-94,26
-95,823
-97,657
-99,467
-99,459
-95,481
-89,913
-84,341
-81,127
-83,516
-88,639
-94,062
-98,119
-98,055
-95,84
-93,47
-91,386
-90,804
-91,017
-91,117
-91,274
-91,372
-91,47
-91,751
-92,093
-92,397
-92,694
-92,988
-93,267
-93,529
-93,781
-94,023
-94,269
-94,539
-94,821
-95,104
-95,389
-95,674
-95,957
-96,238
-96,514
-96,779
-97,036
-97,283
-97,52
-97,747
-97,963
-98,165
-98,354
-98,527
-98,684
-98,822
-98,938
-99,031
-99,099
-99,139
-99,148
-99,126
-99,069
-98,977
-98,848
-98,682
-98,476
-98,229
-97,939
-97,606
-97,227
-96,802
-96,328
-95,802
-95,225
-94,594
-93,908
-93,165
-92,361
-91,491
-90,554
-89,55
-88,481
-87,349
-86,161
-84,922
-83,643
-82,339
-81,022
-79,704
-78,394
-77,098
-75,826
-74,589
-73,397
-72,259
-71,179
-70,158
-69,188
-68,262
-67,365
-66,474
-65,564
-64,602
-63,564
-62,435
-61,2
-59,852
-58,386
-56,789
-55,059
-53,192
-51,193
-49,072
-46,849
-44,551
-42,221
-39,912
-37,678
-35,572
-33,639
-31,912
-30,417
-29,176
-28,209
-27,537
-27,181
-27,164
-27,51
-28,237
-29,351
-30,839
-32,664
-34,778
-37,14
-39,721
-42,504
-45,483
-48,641
-51,962
-55,442
-59,029
-62,617
-66,047
-69,086
-71,507
-73,145
-73,881
-73,616
-72,423
-70,501
-68,103
-65,58
-63,207
-61,087
-59,216
-57,457
-55,334
-52,098
-46,969
-39,151
-28,068
-13,445
4,776
26,316
50,389
75,765
101,113
125,219
147,114
166,083
181,663
193,786
202,781
209,303
214,002
217,165
218,843
218,934
217,042
212,455
204,39
192,154
175,42
154,54
130,245
103,521
75,825
48,996
24,814
4,71
-10,408
-20,327
-25,264
-25,728
-22,721
-17,669
-11,934
-6,529
-2,103
1,135
3,234
4,353
4,896
5,512
6,715
8,76
11,721
15,444
19,688
24,251
28,864
33,196
37,041
40,3
42,936
45,009
46,577
47,658
48,314
48,624
48,647
48,459
48,132
47,723
47,321
47,017
46,874
46,946
47,262
47,826
48,649
49,741
51,105
52,757
54,705
56,944
59,475
62,288
65,359
68,664
72,159
75,796
79,542
83,376
87,284
91,269
95,33
99,469
103,69
107,995
112,387
116,87
121,444
126,112
130,878
135,747
140,725
145,823
151,037
156,364
161,792
167,308
172,901
178,555
184,252
189,979
195,716
201,456
207,184
212,88
218,527
224,109
229,629
235,118
240,611
246,132
251,702
257,322
263,005
268,807
274,705
280,605
286,422
292,036
297,43
302,743
308,001
313,103
318,079
323,015
327,995
333,231
338,619
343,685
348,165
351,95
354,811
356,545
356,861
355,258
351,701
346,631
340,3
332,877
324,58
315,536
306,046
296,631
287,438
278,251
268,962
259,501
249,828
240,002
229,982
219,607
208,917
198,16
187,536
177,161
167,202
157,893
149,311
141,436
134,303
127,651
121,86
118,27
116,622
115,652
113,343
105,788
93,06
79,064
67,619
64,182
69,241
77,471
84,75
86,705
82,398
75,748
69,208
64,389
61,844
59,976
58,016
56,028
53,954
52,032
50,346
48,695
47,033
45,433
43,915
42,488
41,16
39,919
38,761
37,701
36,744
35,884
35,118
34,438
33,832
33,271
32,761
32,349
32,015
31,684
31,276
30,672
29,862
28,994
28,126
27,217
26,333
25,56
25,069
25,2
26,071
27,527
29,461
31,723
34,047
36,198
37,789
38,214
37,054
34,021
28,979
22,178
14,129
5,48
-2,937
-10,273
-15,68
-18,141
-16,929
-11,923
-3,581
7,023
18,565
29,95
40,035
47,407
50,854
49,594
43,661
34,112
22,428
9,891
-2,357
-13,153
-21,364
-25,921
-26,446
-23,509
-18,214
-11,741
-4,953
1,559
7,185
11,214
13,248
13,349
12
9,924
7,571
5,1
2,642
0,363
-1,595
-3,146
-4,376
-5,535
-6,769
-8,099
-9,507
-10,94
-12,374
-13,83
-15,295
-16,727
-18,091
-19,362
-20,523
-21,584
-22,554
-23,444
-24,274
-25,053
-25,791
-26,498
-27,186
-27,866
-28,549
-29,235
-29,915
-30,584
-31,239
-31,888
-32,538
-33,2
-33,875
-34,562
-35,257
-35,961
-36,676
-37,4
-38,133
-38,87
-39,609
-40,353
-41,106
-41,873
-42,654
-43,449
-44,255
-45,07
-45,893
-46,724
-47,561
-48,404
-49,251
-50,101
-50,953
-51,807
-52,66
-53,51
-54,351
-55,179
-55,99
-56,776
-57,535
-58,261
-58,948
-59,59
-60,18
-60,708
-61,169
-61,559
-61,876
-62,119
-62,289
-62,391
-62,432
-62,426
-62,384
-62,314
-62,224
-62,118
-62,003
-61,887
-61,779
-61,687
-61,614
-61,555
-61,506
-61,459
-61,401
-61,309
-61,161
-60,92
-60,561
-60,07
-59,439
-58,666
-57,755
-56,706
-55,525
-54,229
-52,837
-51,38
-49,893
-48,407
-46,968
-45,632
-44,457
-43,511
-42,845
-42,49
-42,473
-42,805
-43,493
-44,543
-45,951
-47,694
-49,746
-52,074
-54,641
-57,413
-60,35
-63,399
-66,502
-69,606
-72,675
-75,689
-78,632
-81,487
-84,229
-86,833
-89,299
-91,642
-93,89
-96,07
-98,18
-100,219
-102,205
-104,113
-105,875
-107,383
-108,42
-108,787
-108,436
-107,318
-105,405
-102,823
-99,669
-96,093
-92,474
-89,028
-85,63
-82,136
-78,275
-73,575
-67,798
-60,656
-51,549
-40,191
-26,739
-11,41
5,356
23,031
41,531
60,661
79,815
98,573
116,75
134,172
150,701
165,914
178,752
188,191
193,564
194,265
189,682
179,212
162,597
140,297
113,542
83,862
52,752
21,663
-7,794
-33,774
-54,921
-70,634
-80,941
-86,377
-87,653
-85,522
-81,104
-75,927
-71,144
-67,417
-65,074
-64,031
-64,097
-65,121
-66,679
-68,086
-68,905
-68,945
-68,169
-66,779
-64,974
-62,857
-60,627
-58,547
-56,758
-55,329
-54,263
-53,465
-52,864
-52,43
-52,098
-51,806
-51,512
-51,16
-50,715
-50,164
-49,482
-48,666
-47,736
-46,695
-45,56
-44,347
-43,056
-41,691
-40,252
-38,717
-37,074
-35,312
-33,422
-31,408
-29,28
-27,036
-24,679
-22,198
-19,567
-16,773
-13,798
-10,624
-7,248
-3,668
0,113
4,074
8,196
12,471
16,892
21,455
26,161
31,002
35,972
41,06
46,247
51,508
56,822
62,165
67,519
72,875
78,222
83,556
88,874
94,16
99,406
104,601
109,733
114,795
119,787
124,712
129,584
134,431
139,278
144,145
149,046
153,983
158,957
163,963
168,989
174,023
179,049
184,045
188,991
193,857
198,598
203,154
207,449
211,384
214,867
217,806
220,113
221,718
222,561
222,59
221,773
220,077
217,476
213,947
209,466
204,022
197,63
190,321
182,153
173,215
163,601
153,417
142,779
131,788
120,539
109,12
97,611
86,094
74,658
63,397
52,415
41,812
31,671
22,07
13,063
4,672
-3,09
-10,233
-16,783
-22,757
-28,172
-33,049
-37,401
-41,257
-44,654
-47,634
-50,26
-52,598
-54,715
-56,684
-58,564
-60,389
-62,189
-63,972
-65,738
-67,492
-69,233
-70,959
-72,671
-74,363
-76,027
-77,653
-79,223
-80,709
-82,082
-83,305
-84,352
-85,211
-85,872
-86,34
-86,623
-86,727
-86,667
-86,46
-86,119
-85,66
-85,095
-84,437
-83,701
-82,904
-82,069
-81,216
-80,366
-79,529
-78,718
-77,939
-77,197
-76,495
-75,834
-75,21
-74,624
-74,072
-73,557
-73,078
-72,635
-72,227
-71,851
-71,506
-71,188
-70,896
-70,629
-70,384
-70,159
-69,954
-69,766
-69,596
-69,443
-69,304
-69,179
-69,067
-68,964
-68,87
-68,784
-68,704
-68,628
-68,557
-68,489
-68,424
-68,362
-68,303
-68,247
-68,196
-68,15
-68,11
-68,077
-68,053
-68,039
-68,036
-68,045
-68,069
-68,108
-68,164
-68,238
-68,332
-68,447
-68,584
-68,744
-68,929
-69,139
-69,374
-69,635
-69,923
-70,236
-70,575
-70,939
-71,328
-71,741
-72,177
-72,634
-73,113
-73,61
-74,126
-74,657
-75,202
-75,758
-76,324
-76,897
-77,473
-78,052
-78,629
-79,204
-79,772
-80,332
-80,881
-81,417
-81,937
-82,44
-82,923
-83,384
-83,822
-84,236
-84,623
-84,983
-85,315
-85,619
-85,895
-86,143
-86,362
-86,554
-86,717
-86,854
-86,963
-87,045
-87,102
-87,135
-87,143
-87,128
-87,091
-87,033
-86,956
-86,862
-86,75
-86,623
-86,482
-86,329
-86,164
-85,989
-85,805
-85,615
-85,418
-85,217
-85,013
-84,806
-84,597
-84,388
-84,178
-83,967
-83,756
-83,544
-83,331
-83,118
-82,903
-82,687
-82,47
-82,252
-82,033
-81,814
-81,594
-81,375
-81,155
-80,937
-80,72
-80,504
-80,29
-80,078
-79,87
-79,667
-79,469
-79,277
-79,091
-78,912
-78,741
-78,579
-78,424
-78,277
-78,139
-78,009
-77,891
-77,786
-77,695
-77,619
-77,557
-77,511
-77,48
-77,465
-77,464
-77,478
-77,504
-77,543
-77,596
-77,666
-77,753
-77,856
-77,97
-78,094
-78,228
-78,373
-78,531
-78,705
-78,893
-79,096
-79,316
-79,555
-79,814
-80,087
-80,363
-80,632
-80,881
-81,107
-81,308
-81,481
-81,614
-81,693
-81,677
-81,533
-81,251
-80,819
-80,248
-79,559
-78,725
-77,746
-76,704
-75,647
-74,598
-73,532
-72,263
-70,613
-68,611
-66,355
-63,858
-61,216
-58,658
-56,447
-55,104
-55,407
-56,933
-58,968
-62,01
-65,623
-70,993
-79,633
-88,318
-94,506
-95,064
-86,567
-72,416
-56,11
-40,2
-28,202
-19,193
-12,403
-8,966
-7,966
-9,196
-13,148
-18,63
-26,777
-38,922
-51,671
-62,247
-66,947
-62,269
-52,171
-40,506
-29,78
-23,12
-19,15
-17,174
-18,43
-22,713
-29,739
-37,806
-45,727
-53,932
-63,835
-78,665
-97,852
-117,18
-132,06
-134,715
-121,681
-97,064
-66,704
-41,881
-32,851
-40,206
-61,166
-87,558
-107,898
-118,424
-118,571
-109,876
-99,106
-89,504
-82,131
-78,825
-77,547
-76,738
-76,238
-74,898
-72,791
-69,931
-65,447
-58,559
-48,458
-34,635
-17,104
3,842
27,519
52,94
79,158
105,146
129,943
152,835
173,251
190,765
205,225
216,579
224,595
229,139
230,076
226,96
219,389
206,99
189,286
167,136
141,798
113,195
82,323
49,002
13,009
-21,093
-50,003
-70,372
-78,348
-76,622
-68,173
-55,755
-43,902
-33,068
-23,121
-14,779
-7,856
-3,779
-3,602
-6,881
-12,738
-19,5
-25,893
-31,478
-35,835
-38,576
-39,563
-38,833
-36,863
-34,5
-32,264
-30,353
-28,902
-27,967
-27,588
-27,778
-28,373
-29,06
-29,63
-29,982
-30,06
-29,86
-29,354
-28,509
-27,33
-25,855
-24,116
-22,13
-19,902
-17,429
-14,717
-11,787
-8,663
-5,362
-1,899
1,697
5,397
9,16
12,947
16,738
20,512
24,241
27,902
31,473
34,938
38,295
41,551
44,706
47,771
50,759
53,679
56,554
59,417
62,298
65,235
68,263
71,405
74,695
78,172
81,863
85,791
89,971
94,399
99,079
104,001
109,149
114,51
120,064
125,786
131,651
137,632
143,699
149,84
156,042
162,281
168,536
174,781
180,985
187,126
193,183
199,135
204,962
210,639
216,134
221,414
226,444
231,185
235,591
239,586
243,09
246,027
248,332
249,96
250,878
251,058
250,475
249,111
246,961
244,03
240,329
235,874
230,685
224,782
218,21
211,047
203,378
195,303
186,908
178,261
169,427
160,465
151,428
142,367
133,319
124,315
115,397
106,608
97,998
89,627
81,537
73,748
66,283
59,141
52,325
45,848
39,712
33,923
28,491
23,423
18,735
14,441
10,539
7,017
3,856
1,013
-1,545
-3,854
-5,957
-7,882
-9,65
-11,284
-12,796
-14,197
-15,503
-16,728
-17,887
-18,999
-20,071
-21,108
-22,112
-23,073
-23,977
-24,807
-25,538
-26,153
-26,647
-27,014
-27,259
-27,39
-27,412
-27,332
-27,161
-26,908
-26,58
-26,186
-25,73
-25,224
-24,679
-24,112
-23,54
-22,98
-22,439
-21,927
-21,449
-21,008
-20,606
-20,243
-19,914
-19,617
-19,353
-19,119
-18,918
-18,749
-18,611
-18,501
-18,42
-18,365
-18,336
-18,331
-18,347
-18,381
-18,433
-18,501
-18,585
-18,683
-18,793
-18,918
-19,059
-19,221
-19,405
-19,606
-19,819
-20,038
-20,26
-20,48
-20,693
-20,891
-21,071
-21,234
-21,389
-21,546
-21,711
-21,883
-22,055
-22,218
-22,37
-22,518
-22,673
-22,841
-23,033
-23,264
-23,556
-23,938
-24,423
-25,007
-25,667
-26,375
-27,109
-27,858
-28,616
-29,382
-30,146
-30,895
-31,612
-32,285
-32,895
-33,411
-33,787
-33,97
-33,93
-33,665
-33,203
-32,583
-31,84
-31,005
-30,103
-29,156
-28,185
-27,211
-26,249
-25,309
-24,414
-23,599
-22,913
-22,417
-22,149
-22,121
-22,314
-22,7
-23,244
-23,906
-24,654
-25,455
-26,281
-27,118
-27,956
-28,79
-29,608
-30,391
-31,106
-31,714
-32,185
-32,507
-32,681
-32,721
-32,648
-32,489
-32,271
-32,019
-31,753
-31,483
-31,212
-30,942
-30,673
-30,41
-30,161
-29,942
-29,763
-29,635
-29,561
-29,54
-29,564
-29,625
-29,712
-29,812
-29,92
-30,03
-30,142
-30,256
-30,374
-30,5
-30,635
-30,78
-30,933
-31,092
-31,255
-31,422
-31,595
-31,774
-31,962
-32,16
-32,372
-32,597
-32,838
-33,095
-33,366
-33,649
-33,942
-34,243
-34,552
-34,868
-35,194
-35,529
-35,873
-36,227
-36,594
-36,973
-37,366
-37,77
-38,184
-38,607
-39,04
-39,485
-39,946
-40,421
-40,91
-41,405
-41,905
-42,405
-42,902
-43,39
-43,863
-44,316
-44,747
-45,158
-45,552
-45,93
-46,291
-46,627
-46,927
-47,189
-47,418
-47,628
-47,837
-48,052
-48,263
-48,453
-48,614
-48,744
-48,858
-48,943
-48,946
-48,852
-48,708
-48,637
-48,779
-49,169
-49,696
-50,22
-50,702
-51,09
-51,239
-50,84
-49,51
-47,1
-43,829
-40,101
-36,182
-32,261
-28,586
-25,567
-23,755
-23,423
-24,352
-26,007
-27,974
-29,988
-31,823
-33,176
-33,591
-32,791
-30,906
-28,343
-25,455
-22,45
-19,433
-16,51
-13,909
-11,812
-10,225
-9,021
-8,075
-7,346
-6,884
-6,756
-6,975
-7,519
-8,374
-9,548
-11,055
-12,876
-14,956
-17,208
-19,535
-21,873
-24,177
-26,402
-28,512
-30,468
-32,231
-33,799
-35,188
-36,414
-37,496
-38,444
-39,275
-40,028
-40,762
-41,557
-42,496
-43,626
-45,017
-46,751
-48,829
-51,234
-53,839
-56,336
-58,471
-60,062
-60,858
-60,706
-59,634
-57,616
-54,905
-52,244
-50,108
-48,724
-48,549
-48,876
-48,57
-47,765
-45,531
-41,886
-38,081
-32,131
-21,662
-3,42
27,06
69,809
120,322
170,837
212,547
239,389
251,384
253,798
251,903
250,021
249,099
246,286
240,239
230,76
218,266
204,493
190
174,269
156,978
138,011
117,338
95,277
72,753
49,91
27,224
6,804
-10,438
-22,603
-27,691
-28,463
-27,083
-26,343
-30,125
-36,426
-43,223
-48,902
-50,49
-49,166
-46,326
-42,431
-38,72
-34,552
-29,248
-23,304
-17,26
-12,377
-9,795
-9,417
-10,728
-13,204
-16,368
-19,872
-23,15
-24,919
-23,753
-19,241
-11,801
-2,242
8,496
19,665
30,545
39,68
45,692
48,581
48,733
46,307
39,677
25,698
3,382
-23,929
-47,594
-58,026
-50,681
-28,018
1,044
27,46
46,872
59,481
68,48
75,688
80,357
81,512
79,09
74,395
68,696
60,625
47,396
27,462
2,986
-18,02
-26,363
-15,147
17,046
62,379
109,494
146,388
164,314
163,634
150,514
134,656
124,708
123,495
129,319
137,537
144,652
150,12
154,823
160,462
167,631
175,596
183,744
191,662
199,171
206,385
213,257
219,283
223,959
227,054
228,168
227,823
226,953
225,271
223,18
219,99
214,266
208,058
203,853
205,604
218,42
242,375
273,463
304,532
327,149
335,982
331,581
318,937
302,788
288,044
276,234
264,137
250,764
234,277
213,296
192,632
175,397
164,148
161,924
164,799
168,815
171,543
169,842
164,835
157,727
148,432
137,711
125,392
111,831
97,944
84,1
70,878
58,777
48,044
38,957
31,261
24,311
17,839
11,742
5,965
0,627
-4,259
-8,536
-11,555
-12,789
-12,268
-10,294
-7,288
-3,78
-0,226
2,774
3,916
2,821
0,621
-2,523
-6,762
-13,402
-25,824
-42,924
-59,846
-71,589
-72,007
-61,498
-46,385
-31,485
-21,926
-18,028
-15,72
-14,239
-12,601
-11,937
-15,292
-20,601
-26,115
-29,555
-27,547
-22,624
-17,165
-12,884
-12,606
-14,627
-17,106
-19,573
-20,759
-21,289
-22,016
-22,742
-23,547
-24,319
-24,822
-25,152
-25,413
-25,58
-25,651
-25,642
-25,549
-25,385
-25,185
-24,957
-24,701
-24,438
-24,18
-23,931
-23,698
-23,483
-23,291
-23,128
-22,999
-22,9
-22,832
-22,784
-22,748
-22,721
-22,688
-22,632
-22,546
-22,423
-22,264
-22,085
-21,892
-21,669
-21,452
-21,313
-21,307
-21,479
-21,828
-22,289
-22,849
-23,587
-24,422
-25,046
-25,354
-25,434
-25,357
-25,567
-25,775
-24,526
-22,05
-19,684
-19,474
-25,314
-36,667
-48,662
-56,612
-54,553
-41,969
-24,683
-7,632
3,958
8,15
8,258
6,96
5,889
5,037
0,236
-13,062
-35,441
-63,289
-87,622
-98,319
-91,809
-71,642
-46,887
-26,929
-15,636
-11,724
-11,344
-11,776
-12,631
-14,575
-18,301
-23,428
-29,087
-34,63
-39,429
-42,987
-44,971
-45,329
-44,642
-43,548
-42,384
-41,52
-40,311
-38,173
-36,154
-34,54
-34,886
-39,058
-44,672
-50,195
-53,424
-51,292
-46,535
-41,479
-37,735
-37,959
-40,286
-42,807
-45,08
-45,926
-46,017
-46,22
-46,374
-46,588
-46,802
-46,838
-46,805
-46,792
-46,768
-46,726
-46,682
-46,637
-46,59
-46,54
-46,475
-46,379
-46,266
-46,146
-46,015
-45,874
-45,726
-45,571
-45,415
-45,263
-45,117
-44,978
-44,849
-44,733
-44,631
-44,546
-44,481
-44,437
-44,416
-44,419
-44,449
-44,508
-44,597
-44,718
-44,872
-45,06
-45,282
-45,539
-45,83
-46,154
-46,51
-46,895
-47,307
-47,743
-48,199
-48,671
-49,156
-49,651
-50,15
-50,651
-51,15
-51,644
-52,128
-52,599
-53,051
-53,48
-53,879
-54,244
-54,568
-54,845
-55,071
-55,242
-55,352
-55,4
-55,381
-55,294
-55,134
-54,899
-54,582
-54,18
-53,693
-53,121
-52,47
-51,746
-50,961
-50,127
-49,258
-48,364
-47,455
-46,535
-45,605
-44,665
-43,711
-42,749
-41,786
-40,83
-39,889
-38,966
-38,064
-37,18
-36,307
-35,435
-34,547
-33,634
-32,694
-31,738
-30,788
-29,872
-29,027
-28,278
-27,646
-27,147
-26,794
-26,597
-26,563
-26,7
-27,015
-27,525
-28,251
-29,209
-30,404
-31,821
-33,432
-35,191
-37,045
-38,944
-40,848
-42,72
-44,534
-46,273
-47,936
-49,539
-51,097
-52,618
-54,097
-55,523
-56,902
-58,258
-59,619
-61,031
-62,554
-64,23
-66,127
-68,335
-70,852
-73,61
-76,509
-79,342
-81,911
-84,095
-85,686
-86,425
-86,283
-85,389
-83,905
-82,178
-80,597
-79,264
-78,313
-78,158
-77,969
-76,634
-74,247
-69,89
-64,301
-58,911
-50,87
-38,103
-18,277
11,283
46,876
84,551
121,105
152,511
179,147
201,532
219,058
232,086
239,757
240,933
235,783
225,561
211,142
194,997
179,311
162,183
142,894
119,433
88,809
54,365
19,131
-14,076
-40,767
-61,646
-78,006
-89,568
-97,018
-99,404
-95,908
-87,821
-76,962
-65,005
-53,493
-43,409
-35,421
-30,432
-29,02
-30,818
-34,885
-40,215
-45,746
-50,852
-55,216
-58,265
-59,624
-59,37
-57,791
-55,431
-52,962
-50,701
-48,773
-47,383
-46,59
-46,377
-46,704
-47,334
-47,965
-48,436
-48,654
-48,559
-48,169
-47,474
-46,451
-45,134
-43,561
-41,757
-39,749
-37,54
-35,121
-32,501
-29,69
-26,703
-23,563
-20,288
-16,896
-13,405
-9,83
-6,187
-2,498
1,212
4,915
8,579
12,187
15,728
19,195
22,59
25,912
29,158
32,335
35,454
38,525
41,563
44,58
47,59
50,626
53,732
56,962
60,369
63,991
67,85
71,959
76,329
80,968
85,883
91,071
96,525
102,24
108,217
114,463
120,974
127,728
134,68
141,774
148,95
156,157
163,349
170,481
177,503
184,361
191,008
197,395
203,47
209,172
214,422
219,131
223,219
226,622
229,29
231,188
232,29
232,569
232,012
230,616
228,388
225,344
221,502
216,88
211,516
205,452
198,746
191,473
183,7
175,482
166,884
157,954
148,74
139,293
129,653
119,852
109,925
99,896
89,794
79,653
69,502
59,373
49,303
39,32
29,468
19,806
10,382
1,256
-7,516
-15,896
-23,839
-31,309
-38,274
-44,702
-50,57
-55,866
-60,586
-64,736
-68,335
-71,408
-73,998
-76,168
-77,982
-79,515
-80,832
-81,982
-83,009
-83,954
-84,849
-85,725
-86,608
-87,512
-88,452
-89,434
-90,46
-91,528
-92,625
-93,725
-94,796
-95,8
-96,713
-97,519
-98,209
-98,78
-99,232
-99,568
-99,795
-99,925
-99,97
-99,94
-99,842
-99,685
-99,481
-99,248
-99,003
-98,768
-98,558
-98,38
-98,243
-98,149
-98,1
-98,094
-98,127
-98,193
-98,287
-98,406
-98,547
-98,709
-98,89
-99,086
-99,293
-99,506
-99,723
-99,94
-100,155
-100,365
-100,568
-100,764
-100,952
-101,133
-101,306
-101,473
-101,631
-101,781
-101,923
-102,056
-102,182
-102,301
-102,413
-102,52
-102,624
-102,728
-102,833
-102,942
-103,058
-103,182
-103,318
-103,467
-103,631
-103,813
-104,014
-104,236
-104,481
-104,749
-105,042
-105,361
-105,706
-106,077
-106,475
-106,901
-107,352
-107,83
-108,334
-108,862
-109,415
-109,991
-110,59
-111,209
-111,848
-112,505
-113,179
-113,866
-114,565
-115,272
-115,987
-116,704
-117,423
-118,14
-118,853
-119,558
-120,253
-120,936
-121,604
-122,254
-122,885
-123,495
-124,081
-124,641
-125,174
-125,679
-126,154
-126,599
-127,012
-127,392
-127,74
-128,053
-128,331
-128,574
-128,78
-128,949
-129,08
-129,174
-129,231
-129,251
-129,235
-129,185
-129,102
-128,987
-128,841
-128,667
-128,464
-128,235
-127,98
-127,7
-127,395
-127,068
-126,721
-126,356
-125,977
-125,585
-125,185
-124,779
-124,371
-123,963
-123,557
-123,152
-122,751
-122,357
-121,977
-121,613
-121,268
-120,943
-120,638
-120,352
-120,083
-119,826
-119,567
-119,297
-119,004
-118,684
-118,339
-117,97
-117,577
-117,163
-116,728
-116,278
-115,828
-115,389
-114,967
-114,574
-114,22
-113,929
-113,74
-113,683
-113,787
-114,07
-114,538
-115,192
-116,034
-117,054
-118,231
-119,537
-120,924
-122,356
-123,804
-125,235
-126,611
-127,88
-128,969
-129,814
-130,359
-130,556
-130,368
-129,766
-128,727
-127,25
-125,354
-123,069
-120,441
-117,515
-114,324
-110,912
-107,331
-103,642
-99,926
-96,265
-92,726
-89,383
-86,312
-83,572
-81,217
-79,275
-77,742
-76,621
-75,926
-75,666
-75,849
-76,47
-77,47
-78,821
-80,569
-82,693
-85,1
-87,626
-90,023
-92,152
-94,106
-95,991
-97,639
-98,923
-100,019
-101,269
-103,195
-106,26
-109,445
-111,558
-113,204
-114,348
-116,464
-121,023
-124,517
-124,802
-119,744
-106,826
-89,914
-72,218
-55,975
-44,848
-38,065
-34,305
-33,103
-32,587
-32,483
-33,046
-33,796
-34,402
-34,151
-32,471
-29,443
-25,566
-21,552
-17,848
-14,621
-12,016
-10,187
-9,272
-9,351
-10,291
-11,804
-13,702
-15,863
-18,212
-20,707
-23,241
-25,708
-28,025
-30,106
-31,941
-33,577
-35,029
-36,339
-37,474
-38,261
-38,651
-38,724
-38,421
-37,637
-36,261
-34,069
-31,166
-28,018
-24,904
-21,953
-19,411
-17,506
-16,547
-17,027
-18,953
-21,848
-25,388
-29,333
-33,398
-37,374
-40,883
-43,329
-44,474
-44,437
-43,243
-40,861
-37,172
-31,97
-25,223
-17,116
-7,804
2,69
14,338
27,043
40,587
54,722
69,321
84,51
100,663
118,081
136,927
157,284
179,129
202,292
226,336
250,353
272,953
292,519
307,56
316,885
319,329
314,699
303,254
284,637
259,884
229,032
192,063
153,085
115,402
83,306
61,581
48,393
41,593
39,174
37,686
38,086
41,197
45,935
51,97
57,693
61,768
64,296
65,378
65,282
64,467
63,382
62,566
62,411
63,047
64,37
66,154
68,222
70,425
72,571
74,457
75,926
76,918
77,475
77,697
77,695
77,577
77,402
77,206
77,156
77,428
77,996
78,895
80,167
81,579
83,801
87,481
91,695
96,154
99,155
98,659
96,887
95,314
96,146
102,412
111,393
120,783
128,993
133,421
135,904
138,306
141,026
145,193
150,132
154,971
159,855
164,646
169,364
174,154
178,883
183,457
187,905
192,232
196,423
200,479
204,409
208,226
211,962
215,643
219,277
222,88
226,497
230,192
234,029
238,063
242,322
246,821
251,575
256,597
261,897
267,475
273,324
279,432
285,798
292,43
299,326
306,469
313,818
321,302
328,853
336,412
343,922
351,34
358,616
365,696
372,537
379,106
385,37
391,289
396,801
401,821
406,273
410,084
413,2
415,584
417,197
418,007
417,996
417,146
415,452
412,912
409,516
405,251
400,105
394,077
387,191
379,501
371,07
361,978
352,31
342,15
331,593
320,725
309,615
298,332
286,943
275,509
264,108
252,823
241,739
230,954
220,556
210,603
201,142
192,194
183,76
175,838
168,414
161,473
155,01
149,016
143,48
138,393
133,737
129,482
125,588
121,993
118,625
115,435
112,38
109,438
106,599
103,856
101,206
98,655
96,205
93,858
91,617
89,476
87,43
85,483
83,645
81,937
80,393
79,029
77,857
76,877
76,086
75,473
75,028
74,733
74,563
74,498
74,52
74,613
74,767
74,965
75,189
75,418
75,629
75,803
75,924
75,982
75,966
75,87
75,689
75,421
75,071
74,64
74,13
73,542
72,876
72,137
71,326
70,45
69,513
68,522
67,481
66,397
65,276
64,124
62,947
61,751
60,54
59,319
58,094
56,87
55,652
54,446
53,255
52,084
50,937
49,816
48,725
47,666
46,639
45,646
44,688
43,766
42,878
42,025
41,205
40,416
39,657
38,925
38,217
37,531
36,861
36,206
35,562
34,923
34,286
33,647
33,002
32,346
31,676
30,987
30,275
29,538
28,771
27,973
27,141
26,272
25,365
24,419
23,432
22,404
21,335
20,225
19,073
17,88
16,647
15,376
14,068
12,725
11,35
9,944
8,511
7,054
5,577
4,082
2,573
1,054
-0,472
-1,999
-3,526
-5,047
-6,559
-8,059
-9,543
-11,008
-12,452
-13,871
-15,264
-16,628
-17,963
-19,266
-20,536
-21,773
-22,976
-24,144
-25,276
-26,373
-27,435
-28,463
-29,456
-30,418
-31,348
-32,249
-33,122
-33,971
-34,796
-35,602
-36,39
-37,163
-37,925
-38,679
-39,427
-40,172
-40,918
-41,667
-42,422
-43,185
-43,958
-44,743
-45,541
-46,355
-47,183
-48,029
-48,892
-49,772
-50,671
-51,588
-52,522
-53,475
-54,444
-55,43
-56,431
-57,446
-58,473
-59,511
-60,557
-61,609
-62,664
-63,72
-64,773
-65,821
-66,86
-67,888
-68,903
-69,901
-70,881
-71,84
-72,776
-73,686
-74,569
-75,424
-76,247
-77,039
-77,797
-78,521
-79,213
-79,871
-80,498
-81,095
-81,664
-82,207
-82,726
-83,223
-83,7
-84,157
-84,598
-85,026
-85,445
-85,861
-86,276
-86,691
-87,107
-87,524
-87,94
-88,348
-88,738
-89,103
-89,433
-89,721
-89,965
-90,162
-90,311
-90,413
-90,466
-90,472
-90,44
-90,376
-90,292
-90,204
-90,131
-90,097
-90,14
-90,291
-90,585
-91,055
-91,725
-92,61
-93,717
-95,041
-96,574
-98,295
-100,176
-102,183
-104,274
-106,395
-108,494
-110,507
-112,359
-113,971
-115,264
-116,15
-116,555
-116,428
-115,733
-114,462
-112,622
-110,232
-107,33
-103,971
-100,225
-96,175
-91,909
-87,518
-83,107
-78,793
-74,701
-70,971
-67,733
-65,083
-63,095
-61,817
-61,271
-61,473
-62,414
-64,06
-66,36
-69,25
-72,658
-76,519
-80,751
-85,255
-89,921
-94,624
-99,248
-103,715
-107,963
-111,947
-115,648
-119,048
-122,143
-124,953
-127,496
-129,793
-131,885
-133,81
-135,619
-137,393
-139,179
-141,032
-143,025
-145,131
-147,284
-149,384
-151,217
-152,588
-153,435
-153,663
-153,197
-152,133
-150,548
-148,572
-146,546
-144,636
-142,736
-140,716
-138,317
-135,092
-130,717
-124,786
-116,644
-105,915
-92,588
-76,823
-58,989
-39,551
-18,833
2,736
24,331
45,087
64,592
82,784
99,397
114,098
125,667
131,971
132,856
129,202
122,572
116,277
110,398
102,522
89,797
66,894
31,621
-13,742
-64,539
-111,531
-145,5
-161,678
-159,591
-144,837
-126,751
-112,476
-105,572
-105,562
-108,399
-111,042
-112,668
-113,51
-114,839
-117,068
-119,356
-120,984
-121,517
-120,885
-119,416
-117,445
-115,174
-112,881
-110,904
-109,418
-108,47
-108,028
-107,96
-108,158
-108,555
-109,038
-109,488
-109,839
-110,039
-110,059
-109,895
-109,512
-108,874
-107,966
-106,774
-105,303
-103,571
-101,596
-99,41
-97,051
-94,559
-91,981
-89,352
-86,688
-83,999
-81,28
-78,513
-75,691
-72,804
-69,839
-66,794
-63,666
-60,449
-57,149
-53,766
-50,3
-46,758
-43,139
-39,443
-35,679
-31,86
-28,006
-24,155
-20,336
-16,58
-12,915
-9,35
-5,881
-2,499
0,827
4,138
7,481
10,916
14,499
18,27
22,272
26,536
31,093
35,983
41,244
46,916
53,04
59,638
66,714
74,265
82,256
90,636
99,339
108,268
117,328
126,435
135,503
144,46
153,24
161,763
169,953
177,727
184,982
191,625
197,57
202,728
207,035
210,438
212,896
214,406
214,974
214,605
213,311
211,099
207,964
203,92
198,976
193,148
186,481
179,026
170,843
162,018
152,634
142,781
132,553
122,02
111,237
100,267
89,165
77,994
66,833
55,751
44,829
34,161
23,824
13,89
4,418
-4,569
-13,056
-21,046
-28,553
-35,58
-42,126
-48,193
-53,786
-58,911
-63,589
-67,84
-71,7
-75,225
-78,476
-81,516
-84,399
-87,153
-89,795
-92,334
-94,768
-97,098
-99,324
-101,444
-103,458
-105,368
-107,173
-108,874
-110,464
-111,923
-113,224
-114,335
-115,233
-115,91
-116,362
-116,595
-116,618
-116,442
-116,083
-115,562
-114,897
-114,103
-113,193
-112,178
-111,073
-109,897
-108,671
-107,419
-106,161
-104,912
-103,683
-102,486
-101,328
-100,214
-99,147
-98,125
-97,147
-96,215
-95,33
-94,493
-93,705
-92,965
-92,272
-91,622
-91,015
-90,448
-89,918
-89,423
-88,961
-88,529
-88,126
-87,751
-87,402
-87,077
-86,774
-86,49
-86,224
-85,974
-85,738
-85,513
-85,299
-85,092
-84,893
-84,7
-84,511
-84,327
-84,146
-83,967
-83,791
-83,617
-83,445
-83,275
-83,108
-82,944
-82,782
-82,625
-82,471
-82,322
-82,178
-82,04
-81,909
-81,784
-81,668
-81,56
-81,46
-81,369
-81,288
-81,216
-81,152
-81,098
-81,052
-81,014
-80,983
-80,959
-80,94
-80,927
-80,917
-80,91
-80,905
-80,902
-80,898
-80,892
-80,884
-80,872
-80,856
-80,833
-80,803
-80,765
-80,718
-80,66
-80,593
-80,514
-80,423
-80,32
-80,204
-80,075
-79,933
-79,778
-79,609
-79,428
-79,233
-79,027
-78,809
-78,581
-78,343
-78,096
-77,842
-77,581
-77,316
-77,047
-76,776
-76,505
-76,236
-75,97
-75,71
-75,458
-75,214
-74,982
-74,762
-74,557
-74,367
-74,193
-74,037
-73,9
-73,782
-73,684
-73,606
-73,55
-73,515
-73,502
-73,511
-73,543
-73,597
-73,673
-73,77
-73,89
-74,031
-74,193
-74,374
-74,574
-74,791
-75,025
-75,274
-75,534
-75,803
-76,076
-76,352
-76,627
-76,898
-77,16
-77,41
-77,646
-77,868
-78,073
-78,26
-78,424
-78,56
-78,662
-78,729
-78,755
-78,736
-78,665
-78,535
-78,346
-78,098
-77,789
-77,416
-76,969
-76,44
-75,826
-75,122
-74,335
-73,473
-72,542
-71,552
-70,525
-69,475
-68,426
-67,395
-66,377
-65,373
-64,384
-63,414
-62,478
-61,584
-60,727
-59,902
-59,098
-58,293
-57,468
-56,593
-55,612
-54,481
-53,163
-51,629
-49,888
-47,948
-45,814
-43,499
-41,005
-38,346
-35,562
-32,688
-29,761
-26,832
-23,957
-21,207
-18,691
-16,495
-14,686
-13,319
-12,406
-11,955
-11,977
-12,468
-13,422
-14,822
-16,628
-18,803
-21,313
-24,109
-27,137
-30,327
-33,573
-36,798
-39,947
-42,98
-45,883
-48,644
-51,235
-53,644
-55,875
-57,941
-59,875
-61,709
-63,45
-65,127
-66,781
-68,412
-69,983
-71,374
-72,372
-72,772
-72,442
-71,295
-69,26
-66,422
-62,988
-59,245
-55,623
-52,459
-49,812
-47,519
-45,292
-42,557
-38,596
-32,787
-24,367
-12,75
2,176
20,155
40,658
62,791
85,678
108,794
131,467
153,11
173,465
192,431
210,176
227,075
242,997
257,083
268,51
276,418
279,702
277,251
267,832
250,098
224,433
193,221
157,564
118,112
74,817
25,65
-26,218
-73,443
-109,654
-127,472
-126,112
-112,181
-91,415
-70,426
-52,64
-36,342
-21,06
-6,664
6,264
15,391
19,815
20,066
17,203
13
8,91
5,66
3,847
3,853
5,724
9,268
13,988
19,12
23,919
27,939
30,902
32,684
33,326
32,911
31,617
29,761
27,69
25,657
23,827
22,285
21,051
20,174
19,709
19,68
20,095
20,949
22,241
23,976
26,158
28,773
31,788
35,157
38,83
42,754
46,876
51,155
55,553
60,032
64,547
69,054
73,499
77,844
82,065
86,149
90,096
93,915
97,612
101,2
104,695
108,114
111,483
114,825
118,153
121,487
124,858
128,312
131,919
135,744
139,827
144,195
148,855
153,81
159,071
164,641
170,516
176,694
183,165
189,927
197,001
204,392
212,086
220,047
228,203
236,482
244,832
253,211
261,581
269,907
278,137
286,228
294,154
301,874
309,337
316,47
323,161
329,304
334,815
339,621
343,675
346,932
349,329
350,809
351,33
350,85
349,341
346,767
343,071
338,221
332,209
325,067
316,877
307,729
297,71
286,921
275,46
263,438
250,987
238,23
225,276
212,241
199,241
186,41
173,908
161,881
150,451
139,708
129,699
120,459
112,011
104,356
97,48
91,353
85,922
81,142
76,972
73,361
70,25
67,556
65,174
62,999
60,938
58,912
56,872
54,775
52,591
50,306
47,917
45,437
42,885
40,28
37,635
34,969
32,305
29,677
27,135
24,726
22,497
20,483
18,708
17,188
15,929
14,931
14,184
13,674
13,378
13,279
13,361
13,606
13,997
14,513
15,129
15,82
16,561
17,329
18,108
18,885
19,646
20,388
21,108
21,803
22,478
23,131
23,761
24,369
24,952
25,51
26,041
26,543
27,014
27,455
27,867
28,252
28,614
28,945
29,238
29,487
29,68
29,822
29,921
29,972
29,978
29,936
29,831
29,691
29,547
29,349
29,065
28,656
28,06
27,343
26,602
25,801
24,921
24,071
23,306
22,763
22,617
22,695
22,797
22,924
23,025
22,974
22,728
22,068
20,738
18,961
16,965
14,794
12,567
10,354
8,157
6,176
4,627
3,348
2,193
1,112
-0,01
-1,164
-2,308
-3,54
-4,95
-6,465
-8,031
-9,608
-11,128
-12,613
-14,089
-15,528
-16,911
-18,241
-19,512
-20,728
-21,898
-23,005
-24,032
-24,973
-25,817
-26,565
-27,217
-27,769
-28,217
-28,554
-28,775
-28,88
-28,871
-28,747
-28,514
-28,178
-27,75
-27,25
-26,692
-26,087
-25,44
-24,754
-24,029
-23,27
-22,477
-21,65
-20,791
-19,898
-18,972
-18,021
-17,041
-16,027
-14,965
-13,829
-12,603
-11,289
-9,891
-8,418
-6,891
-5,326
-3,756
-2,223
-0,762
0,595
1,824
2,914
3,845
4,591
5,123
5,412
5,439
5,208
4,723
3,991
3,035
1,883
0,582
-0,795
-2,193
-3,571
-4,897
-6,155
-7,33
-8,4
-9,359
-10,22
-11,004
-11,753
-12,496
-13,251
-14,045
-14,914
-15,914
-17,138
-18,65
-20,476
-22,631
-25,085
-27,816
-30,837
-34,055
-37,275
-40,307
-42,927
-45
-46,56
-47,524
-47,674
-46,944
-45,35
-42,928
-39,843
-36,016
-31,063
-24,873
-17,579
-9,163
0,408
11,19
23,375
36,756
50,757
65,191
80,156
95,548
111,181
126,725
141,714
156,062
169,827
182,457
192,961
200,54
204,525
204,292
199,343
188,909
172,271
150,516
125,336
97,107
67,022
34,682
-0,307
-33,283
-60,968
-80,215
-87,535
-86,129
-79,054
-68,576
-58,823
-50,045
-41,879
-34,856
-28,475
-23,612
-21,258
-21,499
-23,923
-27,216
-30,398
-33,153
-35,283
-36,839
-37,766
-37,764
-37,017
-36,11
-35,383
-35,031
-35,098
-35,413
-35,939
-36,796
-37,911
-39,067
-40,099
-40,847
-41,253
-41,376
-41,221
-40,751
-39,961
-38,863
-37,489
-35,894
-34,104
-32,12
-29,947
-27,594
-25,076
-22,414
-19,62
-16,702
-13,663
-10,501
-7,221
-3,829
-0,324
3,291
7,022
10,869
14,825
18,878
23,017
27,233
31,515
35,848
40,201
44,545
48,859
53,119
57,314
61,432
65,458
69,384
73,21
76,946
80,615
84,246
87,854
91,453
95,064
98,715
102,454
106,32
110,346
114,562
119,001
123,695
128,678
133,965
139,551
145,415
151,526
157,838
164,317
170,925
177,61
184,316
190,977
197,522
203,885
209,985
215,723
220,986
225,666
229,662
232,898
235,306
236,82
237,395
236,99
235,57
233,113
229,595
224,992
219,291
212,492
204,616
195,724
185,9
175,235
163,833
151,795
139,227
126,251
112,973
99,492
85,913
72,339
58,882
45,678
32,854
20,522
8,788
-2,282
-12,645
-22,268
-31,144
-39,279
-46,689
-53,409
-59,471
-64,902
-69,743
-74,039
-77,849
-81,261
-84,36
-87,23
-89,963
-92,626
-95,269
-97,936
-100,648
-103,415
-106,242
-109,122
-112,046
-115,01
-117,998
-120,997
-123,986
-126,93
-129,79
-132,526
-135,09
-137,449
-139,582
-141,47
-143,111
-144,508
-145,667
-146,6
-147,324
-147,855
-148,21
-148,404
-148,454
-148,381
-148,208
-147,96
-147,667
-147,349
-147,024
-146,705
-146,401
-146,119
-145,863
-145,636
-145,436
-145,263
-145,118
-145,001
-144,916
-144,862
-144,84
-144,847
-144,882
-144,945
-145,034
-145,151
-145,295
-145,465
-145,663
-145,889
-146,144
-146,429
-146,741
-147,079
-147,442
-147,825
-148,228
-148,646
-149,078
-149,521
-149,972
-150,43
-150,893
-151,36
-151,83
-152,302
-152,775
-153,249
-153,725
-154,201
-154,679
-155,159
-155,642
-156,128
-156,618
-157,113
-157,614
-158,119
-158,63
-159,145
-159,664
-160,186
-160,71
-161,235
-161,76
-162,285
-162,81
-163,334
-163,858
-164,382
-164,906
-165,43
-165,953
-166,474
-166,99
-167,5
-168
-168,487
-168,957
-169,406
-169,829
-170,222
-170,582
-170,903
-171,18
-171,404
-171,569
-171,672
-171,711
-171,686
-171,597
-171,448
-171,244
-170,996
-170,715
-170,409
-170,087
-169,749
-169,396
-169,03
-168,649
-168,258
-167,854
-167,427
-166,967
-166,466
-165,914
-165,301
-164,615
-163,829
-162,922
-161,879
-160,688
-159,356
-157,892
-156,314
-154,64
-152,897
-151,117
-149,344
-147,624
-145,99
-144,473
-143,094
-141,876
-140,86
-140,08
-139,561
-139,322
-139,362
-139,667
-140,219
-140,99
-141,945
-143,041
-144,23
-145,463
-146,715
-147,975
-149,256
-150,559
-151,859
-153,143
-154,405
-155,663
-156,981
-158,408
-159,987
-161,822
-164,007
-166,61
-169,634
-172,91
-176,186
-179,268
-181,977
-184,053
-185,264
-185,569
-185,276
-185,083
-185,771
-187,116
-187,977
-187,941
-187,42
-189,1
-196,839
-210,642
-226,438
-236,007
-229,857
-204,653
-164,318
-117,655
-74,193
-38,392
-8,499
18,594
43,913
65,638
78,865
82,172
79,271
74,822
74,867
80,568
87,107
90,25
85,23
70,565
49,672
25,03
-1,182
-27,913
-56,152
-85,646
-114,902
-142,116
-165,479
-184,037
-197,515
-205,568
-208,01
-205,125
-197,846
-187,731
-176,071
-163,816
-152,004
-141,764
-134,19
-130,123
-129,692
-132,457
-138,213
-146,734
-157,307
-168,955
-180,384
-190,183
-197,593
-202,304
-203,724
-201,437
-195,519
-186,279
-174,693
-162,246
-149,847
-138,057
-127,682
-119,301
-113,293
-110,033
-109,123
-109,525
-110,635
-112,082
-113,429
-114,506
-115,079
-114,751
-113,658
-112,357
-111,161
-110,274
-109,796
-109,596
-109,65
-110,074
-110,79
-111,585
-112,305
-112,802
-113,011
-112,968
-112,644
-111,951
-110,813
-109,161
-106,948
-104,16
-100,791
-96,832
-92,298
-87,219
-81,631
-75,576
-69,097
-62,23
-55,012
-47,485
-39,698
-31,722
-23,649
-15,579
-7,6
0,214
7,806
15,132
22,16
28,863
35,227
41,238
46,886
52,162
57,064
61,596
65,774
69,628
73,21
76,578
79,799
82,93
86,016
89,09
92,176
95,29
98,447
101,654
104,914
108,221
111,55
114,863
118,117
121,247
124,174
126,799
129,003
130,668
131,698
132,006
131,518
130,165
127,872
124,578
120,243
114,841
108,372
100,86
92,342
82,884
72,58
61,547
49,934
37,9
25,582
13,119
0,649
-11,695
-23,761
-35,405
-46,506
-56,944
-66,617
-75,45
-83,38
-90,374
-96,431
-101,561
-105,799
-109,194
-111,787
-113,625
-114,764
-115,255
-115,172
-114,602
-113,618
-112,308
-110,762
-109,051
-107,24
-105,38
-103,501
-101,636
-99,822
-98,079
-96,434
-94,913
-93,533
-92,319
-91,284
-90,416
-89,708
-89,135
-88,665
-88,275
-87,947
-87,662
-87,416
-87,199
-86,986
-86,755
-86,476
-86,116
-85,645
-85,026
-84,227
-83,23
-82,026
-80,613
-79,001
-77,197
-75,2
-73,018
-70,64
-68,054
-65,268
-62,292
-59,152
-55,882
-52,516
-49,097
-45,671
-42,285
-38,977
-35,772
-32,689
-29,74
-26,944
-24,318
-21,894
-19,708
-17,783
-16,14
-14,783
-13,706
-12,895
-12,327
-11,965
-11,759
-11,671
-11,671
-11,737
-11,855
-12,003
-12,16
-12,298
-12,388
-12,402
-12,309
-12,085
-11,714
-11,186
-10,505
-9,684
-8,747
-7,707
-6,574
-5,352
-4,041
-2,646
-1,167
0,398
2,052
3,792
5,613
7,501
9,454
11,469
13,539
15,677
17,903
20,224
22,652
25,17
27,744
30,37
33,057
35,767
38,432
40,948
43,223
45,3
47,275
49,209
51,09
52,879
54,733
56,819
59,1
61,469
63,502
65,236
67,878
71,458
74,877
76,066
71,007
59,999
47,834
39,735
42,397
56,316
75,237
94,041
107,25
113,131
114,946
113,739
109,978
103,995
94,551
82,013
67,887
53,364
40,135
30,093
24,582
24,528
29,972
39,858
52,691
66,885
80,994
93,686
103,645
109,684
111,346
108,975
103,451
96,103
87,968
79,785
72,445
66,797
63,334
62,27
63,343
65,758
68,882
72,156
74,875
76,597
77,082
76,218
74,375
72,346
71,057
71,713
75,496
83,129
95,023
111,208
131,208
154,253
179,192
204,479
228,783
251,164
271,07
288,533
303,8
317,2
329,392
341,052
352,442
363,578
373,817
381,757
386,238
385,996
380,199
369,31
352,895
330,099
299,944
260,307
213,292
164,87
121,412
90,698
74,56
68,585
68,96
70,932
73,062
78,24
87,179
99,642
114,509
128,737
140,33
148,41
152,409
152,525
149,338
143,533
135,894
127,321
118,823
111,249
105,161
100,884
98,401
97,419
97,642
98,673
99,979
101,19
102,105
102,614
102,785
102,784
102,744
102,863
103,372
104,381
105,928
108,002
110,516
113,393
116,567
119,939
123,401
126,868
130,26
133,515
136,58
139,386
141,875
144,004
145,754
147,131
148,153
148,846
149,244
149,391
149,353
149,22
149,095
149,069
149,218
149,636
150,445
151,732
153,538
155,812
158,393
161,213
164,339
167,841
171,794
176,299
181,432
187,433
194,756
203,559
213,667
224,739
236,221
247,616
258,594
268,603
276,865
282,983
286,921
288,984
289,87
290,118
290,03
290,085
290,876
292,763
295,909
300,153
304,995
310,115
315,379
320,592
325,557
330,12
334,154
337,701
340,947
343,951
346,652
348,954
350,727
351,884
352,38
352,113
350,924
348,728
345,54
341,489
336,757
331,421
325,422
318,698
311,305
303,299
294,656
285,202
274,684
263,095
250,782
238,246
225,853
213,884
202,648
192,602
184,33
178,11
173,719
170,641
168,449
166,847
165,583
164,316
162,541
159,935
156,56
152,73
148,712
144,639
140,551
136,489
132,616
129,054
125,772
122,631
119,504
116,344
113,183
110,081
107,058
104,125
101,31
98,663
96,239
94,069
92,159
90,497
89,073
87,88
86,923
86,198
85,696
85,411
85,337
85,474
85,832
86,408
87,188
88,159
89,298
90,582
91,989
93,487
95,037
96,61
98,173
99,698
101,167
102,55
103,81
104,906
105,789
106,418
106,773
106,838
106,601
106,067
105,242
104,153
102,841
101,337
99,668
97,854
95,908
93,852
91,716
89,529
87,329
85,15
83,006
80,921
78,921
77,023
75,242
73,571
71,963
70,388
68,83
67,276
65,743
64,222
62,655
61,06
59,511
58,067
56,824
55,773
54,752
53,697
52,662
51,56
50,254
48,591
46,288
43,362
40,179
36,929
33,657
30,527
27,695
25,417
24,148
23,917
24,3
25,045
26,008
27,024
28,026
28,806
28,959
28,429
27,518
26,437
25,361
24,417
23,583
22,935
22,676
22,835
23,287
23,927
24,632
25,331
26,052
26,779
27,443
28,009
28,451
28,744
28,884
28,829
28,518
27,916
27
25,773
24,252
22,445
20,372
18,081
15,603
12,93
10,036
6,905
3,575
0,149
-3,263
-6,64
-9,924
-12,861
-15,2
-16,88
-17,979
-18,853
-19,334
-18,271
-15,1
-10,582
-7,781
-11,248
-22,855
-39,883
-55,099
-60,437
-52,517
-34,31
-13,613
2,072
9,388
9,283
5,319
0,221
-5,111
-11,015
-18,451
-27,479
-37,262
-46,462
-53,105
-55,661
-53,534
-46,523
-34,805
-18,807
1,002
23,651
47,491
70,87
92,618
112,013
128,372
141,621
152,623
161,371
167,511
169,96
164,823
151,158
133,244
116,637
109,694
117,107
132,778
147,417
151,376
137,053
108,062
73,383
39,897
14,095
-3,677
-17,919
-30,321
-42,02
-53,191
-61,844
-67,646
-71,462
-73,672
-75,036
-76,375
-77,919
-79,824
-82,236
-84,85
-87,172
-88,999
-90,197
-90,609
-90,244
-89,114
-87,226
-84,797
-82,133
-79,429
-76,808
-74,33
-71,964
-69,686
-67,497
-65,358
-63,218
-61,041
-58,801
-56,493
-54,151
-51,824
-49,552
-47,363
-45,264
-43,245
-41,313
-39,488
-37,796
-36,263
-34,903
-33,713
-32,7
-31,882
-31,27
-30,868
-30,649
-30,55
-30,506
-30,466
-30,389
-30,244
-29,99
-29,571
-28,941
-28,068
-26,931
-25,523
-23,823
-21,8
-19,426
-16,678
-13,56
-10,111
-6,366
-2,361
1,862
6,263
10,791
15,377
19,972
24,544
29,067
33,526
37,895
42,137
46,228
50,143
53,874
57,429
60,816
64,046
67,142
70,129
73,036
75,9
78,738
81,551
84,331
87,059
89,718
92,29
94,744
97,041
99,136
100,978
102,521
103,714
104,495
104,811
104,613
103,856
102,512
100,57
98,029
94,909
91,235
87,039
82,362
77,253
71,768
65,966
59,902
53,635
47,229
40,738
34,208
27,682
21,195
14,777
8,448
2,211
-3,947
-10,055
-16,121
-22,146
-28,132
-34,067
-39,966
-45,894
-51,83
-57,681
-63,354
-68,723
-73,773
-78,656
-83,388
-87,826
-92,012
-96,102
-100,364
-105,282
-110,919
-116,831
-122,745
-128,53
-133,891
-138,548
-141,94
-143,086
-141,748
-138,483
-133,844
-128,475
-122,994
-117,752
-113,461
-111,268
-111,582
-114,098
-118,294
-123,321
-128,565
-133,801
-138,545
-142,071
-144,059
-144,539
-143,814
-142,507
-140,998
-139,377
-137,818
-136,532
-135,649
-135,245
-135,24
-135,397
-135,593
-135,817
-136,069
-136,385
-136,773
-137,205
-137,69
-138,257
-138,922
-139,688
-140,539
-141,442
-142,376
-143,327
-144,291
-145,273
-146,275
-147,293
-148,322
-149,348
-150,365
-151,368
-152,358
-153,343
-154,328
-155,309
-156,291
-157,281
-158,288
-159,326
-160,389
-161,455
-162,504
-163,519
-164,49
-165,419
-166,302
-167,134
-167,907
-168,61
-169,237
-169,79
-170,262
-170,636
-170,897
-171,022
-171,008
-170,878
-170,646
-170,327
-169,929
-169,451
-168,898
-168,284
-167,613
-166,891
-166,116
-165,287
-164,412
-163,511
-162,604
-161,719
-160,868
-160,046
-159,262
-158,524
-157,837
-157,213
-156,653
-156,155
-155,728
-155,384
-155,135
-154,987
-154,933
-154,957
-155,043
-155,166
-155,306
-155,442
-155,539
-155,571
-155,525
-155,387
-155,153
-154,814
-154,348
-153,739
-152,981
-152,076
-151,044
-149,912
-148,706
-147,465
-146,239
-145,081
-144,057
-143,215
-142,578
-142,175
-142,025
-142,166
-142,655
-143,533
-144,82
-146,523
-148,625
-151,102
-153,943
-157,117
-160,584
-164,307
-168,226
-172,31
-176,57
-180,965
-185,396
-189,694
-193,582
-196,815
-199,254
-200,806
-201,414
-201,174
-200,278
-199,035
-197,926
-197,331
-197,399
-198,048
-198,971
-199,567
-199,071
-196,718
-191,68
-183,308
-171,286
-155,688
-136,992
-116,136
-94,405
-72,987
-52,915
-35,028
-19,858
-7,584
1,917
9,2
15,315
21,17
27,216
33,593
40,076
46,077
50,934
53,677
52,791
46,953
35,515
18,354
-4,015
-30,527
-59,957
-90,611
-120,164
-146,436
-167,767
-183,06
-191,906
-194,378
-190,936
-182,842
-171,995
-160,249
-149,218
-140
-133,295
-129,841
-130,056
-133,386
-138,75
-145,23
-152,001
-158,778
-165,703
-171,42
-174,523
-175,734
-175,408
-175,508
-178,23
-180,648
-180,431
-175,344
-162,899
-146,684
-129,924
-114,743
-104,218
-97,489
-93,975
-93,914
-95,956
-99,928
-105,399
-111,369
-117,492
-122,903
-126,339
-127,066
-124,917
-120,429
-114,767
-108,733
-102,662
-96,865
-91,765
-87,906
-85,617
-84,708
-84,531
-84,523
-84,423
-84,178
-83,657
-82,409
-80,166
-76,979
-72,958
-68,507
-63,239
-55,668
-46,061
-35,805
-27,202
-24,545
-27,642
-32,217
-34,039
-27,11
-11,056
8,303
26,458
38,576
43,715
46,115
48,39
52,305
58,417
64,993
71,248
77,269
83,014
88,751
94,558
100,207
105,642
110,93
116,076
121,071
125,915
130,597
135,113
139,452
143,553
147,314
150,637
153,45
155,704
157,334
158,269
158,515
158,07
156,947
155,201
152,776
149,601
145,734
141,236
136,055
130,214
123,681
116,381
108,567
100,505
92,252
83,91
75,659
67,589
59,951
53,022
46,605
40,492
34,662
29,004
23,449
17,983
12,38
6,413
0,23
-6,023
-12,289
-18,448
-24,495
-30,457
-36,214
-41,653
-46,822
-51,757
-56,479
-61,035
-65,385
-69,475
-73,307
-76,876
-80,162
-83,16
-85,854
-88,23
-90,3
-92,08
-93,583
-94,826
-95,818
-96,563
-97,072
-97,358
-97,434
-97,316
-97,018
-96,554
-95,939
-95,188
-94,314
-93,333
-92,256
-91,097
-89,867
-88,576
-87,239
-85,869
-84,477
-83,077
-81,68
-80,296
-78,935
-77,608
-76,322
-75,087
-73,907
-72,79
-71,741
-70,764
-69,864
-69,043
-68,303
-67,646
-67,072
-66,581
-66,171
-65,842
-65,591
-65,415
-65,311
-65,274
-65,302
-65,388
-65,53
-65,72
-65,955
-66,229
-66,537
-66,873
-67,232
-67,609
-67,999
-68,395
-68,794
-69,19
-69,578
-69,955
-70,316
-70,657
-70,974
-71,266
-71,528
-71,758
-71,955
-72,117
-72,243
-72,331
-72,383
-72,398
-72,377
-72,321
-72,232
-72,11
-71,959
-71,779
-71,575
-71,347
-71,099
-70,834
-70,554
-70,261
-69,96
-69,651
-69,338
-69,023
-68,708
-68,397
-68,091
-67,792
-67,502
-67,223
-66,957
-66,704
-66,467
-66,247
-66,043
-65,857
-65,689
-65,54
-65,408
-65,293
-65,194
-65,11
-65,039
-64,979
-64,927
-64,881
-64,838
-64,795
-64,748
-64,694
-64,629
-64,551
-64,456
-64,341
-64,203
-64,041
-63,851
-63,632
-63,38
-63,093
-62,769
-62,404
-61,996
-61,544
-61,044
-60,494
-59,893
-59,24
-58,532
-57,77
-56,949
-56,065
-55,119
-54,112
-53,047
-51,93
-50,768
-49,571
-48,349
-47,117
-45,889
-44,675
-43,485
-42,322
-41,193
-40,108
-39,077
-38,116
-37,23
-36,419
-35,679
-35,002
-34,375
-33,781
-33,194
-32,579
-31,91
-31,169
-30,346
-29,442
-28,449
-27,354
-26,144
-24,801
-23,316
-21,695
-19,943
-18,073
-16,108
-14,081
-12,037
-10,042
-8,137
-6,352
-4,71
-3,222
-1,923
-0,854
-0,052
0,441
0,6
0,403
-0,183
-1,188
-2,632
-4,524
-6,842
-9,566
-12,723
-16,298
-20,217
-24,342
-28,407
-32,169
-35,481
-38,17
-40,074
-41,205
-41,703
-41,891
-42,326
-43,438
-45,355
-48,127
-51,587
-55,13
-57,904
-58,813
-56,541
-50,028
-38,762
-22,41
-0,962
24,69
53,129
82,685
111,426
138,457
164,216
188,592
210,57
227,35
234,986
231,664
219,511
206,357
201,069
210,137
235,801
270,116
302,766
323,979
322,749
297,757
252,331
190,986
126,387
68,446
22,341
-6,823
-22,396
-31,061
-35,875
-40,367
-44,332
-43,989
-38,489
-28,395
-15,221
-1,953
9,541
18,686
25,111
28,497
28,834
26,571
22,396
17,205
11,958
7,114
3,01
0,228
-0,96
-0,604
1,112
3,699
6,563
9,449
12,213
14,647
16,699
18,353
19,61
20,65
21,719
22,934
24,348
25,95
27,63
29,335
31,107
33,019
35,148
37,494
39,929
42,327
44,697
47,033
49,227
50,991
51,951
51,969
51,295
50,374
49,506
48,916
48,876
49,821
52,326
56,676
62,651
69,7
77,389
85,411
93,463
101,199
108,174
114,185
119,441
124,348
129,133
133,846
138,545
143,249
147,981
152,577
156,626
159,812
162,185
164,074
165,754
167,469
169,484
172,201
176,187
181,77
188,788
196,737
205,18
213,823
222,432
230,714
238,229
244,694
250,189
255,058
259,599
263,952
268,142
272,163
276,098
279,993
283,751
287,155
290,008
292,19
293,643
294,353
294,278
293,359
291,565
288,893
285,334
280,872
275,493
269,19
261,983
253,936
245,116
235,604
225,491
214,867
203,838
192,505
180,954
169,267
157,536
145,855
134,338
123,106
112,267
101,92
92,148
83,003
74,523
66,726
59,607
53,149
47,324
42,094
37,444
33,364
29,832
26,816
24,265
22,086
20,211
18,589
17,126
15,719
14,288
12,765
11,135
9,457
7,745
5,94
4,109
2,473
1,083
-0,115
-1,086
-2,055
-2,548
-1,167
1,8
5,125
6,712
2,639
-6,787
-17,658
-26,048
-26,384
-18,432
-7,457
2,469
6,917
5,194
1,23
-2,584
-4,586
-4,331
-3,456
-2,695
-2,012
-1,451
-0,756
0,113
0,878
1,439
1,87
2,289
2,826
3,541
4,347
5,106
5,818
6,5
6,994
6,978
5,994
3,676
0,131
-4,185
-8,931
-13,802
-18,399
-22,232
-24,492
-24,319
-21,618
-16,901
-10,745
-3,927
2,867
9,158
14,073
16,529
16,188
13,24
8,132
1,889
-4,704
-11,325
-17,354
-22,005
-24,937
-25,966
-25,181
-23,413
-21,259
-18,88
-16,584
-14,636
-13,164
-12,442
-12,583
-13,181
-13,949
-14,811
-15,644
-16,485
-17,37
-18,167
-18,788
-19,338
-19,889
-20,485
-21,178
-21,909
-22,628
-23,351
-24,089
-24,839
-25,597
-26,346
-27,067
-27,767
-28,454
-29,138
-29,826
-30,515
-31,203
-31,887
-32,571
-33,262
-33,969
-34,697
-35,448
-36,221
-37,015
-37,83
-38,664
-39,521
-40,399
-41,293
-42,205
-43,12
-44,037
-44,968
-45,9
-46,805
-47,657
-48,398
-48,993
-49,518
-50,021
-50,533
-51,121
-51,787
-52,534
-53,457
-54,565
-55,602
-56,3
-56,443
-55,789
-54,293
-52,187
-49,746
-47,125
-45,025
-43,525
-41,633
-40,083
-40,005
-43,158
-53,524
-70,24
-87,957
-101,038
-101,878
-89,486
-70,436
-50,638
-36,427
-29,397
-25,539
-22,847
-20,212
-17,866
-17,785
-20,001
-23,611
-28,145
-32,904
-37,483
-41,763
-45,265
-47,802
-49,801
-51,662
-53,612
-55,743
-57,915
-60,009
-62,107
-64,187
-66,046
-67,524
-68,476
-68,827
-68,641
-67,963
-66,79
-65,15
-63,063
-60,535
-57,606
-54,312
-50,698
-46,841
-42,809
-38,661
-34,462
-30,251
-26,072
-21,971
-17,98
-14,125
-10,437
-6,957
-3,751
-0,913
1,479
3,373
4,748
5,609
5,957
5,786
5,101
3,904
2,206
0,022
-2,641
-5,769
-9,325
-13,249
-17,444
-21,789
-26,164
-30,478
-34,667
-38,682
-42,476
-45,999
-49,206
-52,064
-54,554
-56,651
-58,337
-59,604
-60,459
-60,959
-61,209
-61,28
-61,207
-60,956
-60,393
-59,422
-58,002
-56,05
-53,511
-50,464
-47,09
-43,775
-41,055
-39,248
-38,479
-38,79
-39,972
-41,558
-42,872
-42,859
-40,362
-34,661
-25,346
-12,264
4,255
23,598
44,876
66,677
87,58
106,781
123,74
138,158
150,391
160,955
170,514
180,326
190,731
200,509
208,733
215,122
220,969
229,12
240,021
249,741
250,509
234,695
199,397
148,216
90,984
37,394
-6,885
-39,844
-63,386
-80,218
-90,881
-94,071
-89,254
-75,384
-52,746
-26,819
-1,75
18,045
27,702
29,338
25,351
17,745
10,363
2,874
-5,344
-13,357
-21,163
-27,52
-31,279
-32,615
-31,887
-29,77
-27,034
-24,247
-21,815
-19,965
-18,81
-18,302
-18,262
-18,526
-18,877
-19,061
-18,946
-18,471
-17,609
-16,408
-14,904
-13,11
-11,064
-8,81
-6,365
-3,745
-0,947
2,047
5,232
8,598
12,129
15,8
19,6
23,521
27,556
31,702
35,949
40,282
44,685
49,145
53,641
58,156
62,668
67,15
71,583
75,952
80,25
84,475
88,623
92,691
96,673
100,561
104,358
108,079
111,747
115,393
119,047
122,735
126,49
130,349
134,342
138,491
142,809
147,299
151,967
156,825
161,885
167,17
172,681
178,408
184,328
190,409
196,61
202,892
209,198
215,458
221,618
227,625
233,434
239,014
244,314
249,27
253,816
257,867
261,354
264,225
266,418
267,887
268,59
268,477
267,54
265,795
263,242
259,9
255,75
250,708
244,805
238,156
230,868
223,108
214,921
206,184
196,936
187,389
177,562
167,355
156,525
144,581
131,483
117,744
103,709
89,548
75,55
62,011
49,585
39,494
32,296
27,565
24,817
23,56
23,152
23,098
22,617
19,995
14,589
7,603
-0,81
-10,801
-23,265
-41,39
-64,059
-85,921
-101,713
-105,02
-95,306
-78,775
-60,777
-46,698
-38,463
-33,308
-30,033
-28,223
-27,972
-30,561
-35,935
-43,142
-51,269
-59,355
-66,655
-72,537
-76,522
-78,502
-78,725
-77,709
-76,057
-74,097
-72,024
-70,091
-68,462
-67,238
-66,446
-65,925
-65,452
-64,936
-64,366
-63,755
-63,162
-62,603
-62,067
-61,584
-61,195
-60,919
-60,763
-60,709
-60,72
-60,774
-60,863
-60,985
-61,144
-61,336
-61,551
-61,78
-62,015
-62,255
-62,5
-62,75
-63,003
-63,257
-63,512
-63,771
-64,037
-64,311
-64,591
-64,875
-65,156
-65,431
-65,7
-65,961
-66,211
-66,449
-66,675
-66,886
-67,085
-67,27
-67,442
-67,602
-67,75
-67,887
-68,014
-68,133
-68,246
-68,354
-68,46
-68,566
-68,673
-68,783
-68,899
-69,022
-69,153
-69,294
-69,447
-69,613
-69,792
-69,986
-70,195
-70,422
-70,667
-70,929
-71,211
-71,513
-71,834
-72,174
-72,534
-72,913
-73,309
-73,723
-74,152
-74,595
-75,05
-75,516
-75,991
-76,472
-76,957
-77,443
-77,928
-78,408
-78,882
-79,346
-79,798
-80,237
-80,66
-81,064
-81,45
-81,814
-82,155
-82,472
-82,764
-83,03
-83,268
-83,477
-83,658
-83,809
-83,93
-84,021
-84,082
-84,112
-84,113
-84,085
-84,027
-83,941
-83,828
-83,687
-83,522
-83,333
-83,122
-82,892
-82,644
-82,381
-82,105
-81,816
-81,518
-81,212
-80,898
-80,578
-80,253
-79,924
-79,593
-79,26
-78,928
-78,596
-78,267
-77,942
-77,621
-77,305
-76,995
-76,689
-76,389
-76,094
-75,804
-75,521
-75,243
-74,97
-74,702
-74,439
-74,183
-73,932
-73,687
-73,447
-73,21
-72,977
-72,749
-72,527
-72,312
-72,108
-71,914
-71,731
-71,562
-71,41
-71,274
-71,149
-71,026
-70,892
-70,738
-70,555
-70,334
-70,071
-69,756
-69,385
-68,951
-68,454
-67,902
-67,297
-66,64
-65,923
-65,137
-64,298
-63,443
-62,631
-61,915
-61,33
-60,888
-60,616
-60,57
-60,779
-61,215
-61,761
-62,263
-62,652
-62,972
-63,316
-63,699
-64,118
-64,615
-65,406
-66,804
-68,971
-71,834
-75,037
-78,226
-81,116
-83,367
-84,455
-83,76
-80,743
-75,126
-67,231
-57,601
-46,803
-35,581
-24,714
-14,992
-7,304
-2,402
-0,377
-0,98
-3,758
-7,961
-13,01
-18,452
-23,683
-28,112
-31,519
-33,897
-35,485
-36,79
-38,088
-39,464
-41,051
-42,961
-45,244
-47,925
-50,892
-53,889
-56,775
-59,527
-62,151
-64,716
-67,271
-69,809
-72,322
-74,831
-77,347
-79,824
-82,187
-84,249
-85,739
-86,5
-86,479
-85,651
-84,019
-81,593
-78,351
-74,45
-70,221
-65,724
-60,821
-55,302
-48,843
-41,275
-32,549
-22,367
-10,285
3,729
19,47
36,613
54,709
73,678
93,544
113,919
134,219
154,122
173,407
191,799
208,859
223,483
234,4
240,818
242,221
238,039
227,696
210,887
187,857
159,76
128,227
94,65
60,253
26,496
-4,877
-32,242
-54,419
-70,945
-81,91
-87,317
-87,066
-81,56
-71,817
-59,036
-44,38
-28,81
-13,122
1,567
13,797
22,539
27,428
28,351
25,286
18,35
7,918
-4,988
-18,641
-31,413
-42,303
-50,532
-55,31
-56,019
-52,379
-44,843
-34,814
-23,918
-13,192
-3,409
4,629
10,22
12,77
12,226
9,439
5,631
1,598
-2,159
-5,213
-7,199
-7,626
-6,242
-3,376
0,334
4,432
8,668
12,936
17,179
21,185
24,76
27,925
30,85
33,693
36,539
39,375
42,151
44,878
47,607
50,378
53,208
56,098
59,051
62,099
65,293
68,693
72,358
76,324
80,606
85,204
90,108
95,308
100,787
106,516
112,451
118,531
124,697
130,906
137,12
143,306
149,429
155,439
161,291
166,972
172,482
177,836
183,057
188,146
193,113
197,995
202,798
207,5
212,082
216,51
220,768
224,888
228,867
232,63
236,217
239,812
243,411
246,858
250,091
252,822
255,37
258,979
263,318
267,044
268,113
262,722
250,984
236,735
223,883
218,133
220,097
224,555
227,563
224,65
215,429
205,267
196,368
189,077
181,879
169,219
150,589
130,154
111,909
101,83
100,454
102,174
102,76
97,791
86,452
72,814
59,43
48,022
39,183
31,354
23,819
16,649
9,807
3,558
-2,005
-7,069
-11,684
-15,806
-19,445
-22,636
-25,391
-27,72
-29,644
-31,16
-32,301
-33,147
-33,743
-34,103
-34,26
-34,235
-34,067
-33,82
-33,533
-33,228
-32,923
-32,621
-32,33
-32,067
-31,83
-31,613
-31,406
-31,192
-30,976
-30,787
-30,635
-30,527
-30,452
-30,378
-30,29
-30,189
-30,07
-29,936
-29,784
-29,606
-29,403
-29,187
-28,967
-28,749
-28,525
-28,269
-27,971
-27,63
-27,256
-26,872
-26,492
-26,119
-25,76
-25,421
-25,11
-24,835
-24,596
-24,384
-24,194
-24,026
-23,886
-23,787
-23,735
-23,727
-23,76
-23,823
-23,909
-24,018
-24,143
-24,279
-24,422
-24,568
-24,719
-24,882
-25,061
-25,255
-25,467
-25,693
-25,935
-26,195
-26,473
-26,773
-27,094
-27,438
-27,807
-28,202
-28,625
-29,076
-29,554
-30,057
-30,583
-31,132
-31,701
-32,29
-32,896
-33,519
-34,156
-34,806
-35,468
-36,141
-36,823
-37,511
-38,204
-38,899
-39,594
-40,286
-40,974
-41,654
-42,323
-42,981
-43,624
-44,25
-44,86
-45,45
-46,021
-46,573
-47,104
-47,616
-48,108
-48,58
-49,034
-49,471
-49,89
-50,295
-50,685
-51,063
-51,431
-51,791
-52,143
-52,489
-52,831
-53,17
-53,507
-53,843
-54,179
-54,517
-54,858
-55,204
-55,555
-55,914
-56,28
-56,657
-57,043
-57,439
-57,845
-58,262
-58,687
-59,121
-59,562
-60,01
-60,462
-60,918
-61,376
-61,833
-62,288
-62,739
-63,183
-63,618
-64,042
-64,453
-64,849
-65,228
-65,589
-65,932
-66,254
-66,556
-66,837
-67,097
-67,333
-67,547
-67,738
-67,905
-68,048
-68,167
-68,263
-68,337
-68,389
-68,421
-68,434
-68,43
-68,41
-68,377
-68,332
-68,277
-68,214
-68,146
-68,076
-68,005
-67,936
-67,872
-67,815
-67,766
-67,728
-67,701
-67,687
-67,686
-67,698
-67,725
-67,766
-67,821
-67,89
-67,975
-68,074
-68,187
-68,315
-68,455
-68,608
-68,771
-68,943
-69,121
-69,304
-69,488
-69,67
-69,848
-70,018
-70,179
-70,326
-70,457
-70,568
-70,658
-70,722
-70,758
-70,761
-70,729
-70,658
-70,546
-70,39
-70,187
-69,933
-69,627
-69,267
-68,85
-68,374
-67,833
-67,222
-66,536
-65,775
-64,941
-64,034
-63,061
-62,027
-60,943
-59,824
-58,683
-57,533
-56,382
-55,234
-54,097
-52,98
-51,894
-50,852
-49,856
-48,904
-47,994
-47,117
-46,263
-45,412
-44,536
-43,595
-42,56
-41,409
-40,131
-38,723
-37,183
-35,511
-33,708
-31,782
-29,754
-27,655
-25,513
-23,364
-21,246
-19,206
-17,308
-15,624
-14,209
-13,107
-12,342
-11,929
-11,874
-12,18
-12,836
-13,823
-15,108
-16,652
-18,42
-20,378
-22,495
-24,744
-27,083
-29,464
-31,854
-34,22
-36,55
-38,85
-41,128
-43,411
-45,736
-48,131
-50,646
-53,348
-56,231
-59,242
-62,265
-65,077
-67,492
-69,369
-70,51
-70,769
-70,153
-68,766
-66,875
-64,914
-63,169
-61,835
-61,159
-61,112
-61,319
-61,169
-59,721
-55,873
-48,762
-37,576
-21,461
-0,072
26,285
56,751
89,86
123,939
157,396
188,465
215,206
236,08
250,284
257,768
259,111
255,075
246,465
234,353
220,027
204,658
188,92
172,89
156,372
139,244
121,538
103,326
84,751
66,077
47,82
30,829
15,931
3,71
-5,552
-11,859
-15,53
-17,121
-17,243
-16,616
-15,869
-15,42
-15,517
-16,202
-17,268
-18,329
-19,076
-19,267
-18,764
-17,569
-15,714
-13,28
-10,451
-7,485
-4,574
-1,831
0,71
3,098
5,381
7,592
9,772
11,971
14,226
16,56
18,975
21,438
23,902
26,333
28,714
31,049
33,351
35,616
37,823
39,955
41,998
43,941
45,787
47,513
49,076
50,45
51,627
52,625
53,51
54,322
55,04
55,707
56,432
57,312
58,49
59,991
61,677
63,52
65,623
67,956
70,414
72,858
75,01
76,894
78,911
81,263
83,986
87,249
91,203
96,095
102,39
110,09
118,689
127,856
137,357
146,896
156,29
165,234
173,218
180,149
186,34
191,993
197,266
202,299
207,122
211,836
216,648
221,5
226,079
230,224
233,913
237,221
240,343
243,45
246,631
250,177
254,593
260,094
266,589
273,761
281,038
287,92
294,067
298,929
301,767
302,184
300,127
295,871
290,06
283,173
275,472
267,384
259,444
251,977
245,115
238,697
232,276
225,594
218,583
211,138
203,145
194,529
185,256
175,444
165,364
155,198
145,033
134,932
124,927
115,079
105,481
96,199
87,239
78,602
70,304
62,369
54,847
47,782
41,191
35,087
29,474
24,348
19,711
15,558
11,863
8,583
5,659
3,012
0,585
-1,659
-3,755
-5,727
-7,604
-9,415
-11,179
-12,901
-14,589
-16,248
-17,887
-19,514
-21,125
-22,703
-24,22
-25,638
-26,93
-28,083
-29,087
-29,939
-30,641
-31,19
-31,598
-31,88
-32,051
-32,119
-32,096
-31,99
-31,813
-31,585
-31,324
-31,05
-30,782
-30,536
-30,321
-30,13
-29,958
-29,801
-29,653
-29,528
-29,432
-29,347
-29,292
-29,322
-29,464
-29,743
-30,171
-30,695
-31,273
-31,949
-32,639
-33,088
-33,268
-33,282
-33,076
-32,865
-32,273
-29,989
-26,279
-22,441
-20,674
-24,787
-35,119
-48,263
-59,228
-61,966
-54,513
-40,27
-25,676
-16,79
-16,56
-23,983
-33,875
-42,221
-46,959
-47,148
-45,385
-43,504
-41,98
-41,711
-41,97
-42,123
-42,397
-42,644
-42,929
-43,433
-44,034
-44,63
-45,23
-45,8
-46,319
-46,805
-47,27
-47,714
-48,155
-48,611
-49,075
-49,544
-50,023
-50,51
-51,004
-51,507
-52,016
-52,53
-53,05
-53,577
-54,112
-54,654
-55,204
-55,763
-56,33
-56,907
-57,494
-58,091
-58,7
-59,319
-59,95
-60,593
-61,249
-61,918
-62,599
-63,295
-64,003
-64,726
-65,462
-66,21
-66,97
-67,742
-68,522
-69,311
-70,106
-70,907
-71,711
-72,518
-73,324
-74,13
-74,934
-75,733
-76,526
-77,311
-78,086
-78,849
-79,599
-80,334
-81,051
-81,75
-82,429
-83,087
-83,723
-84,336
-84,925
-85,489
-86,028
-86,54
-87,027
-87,486
-87,919
-88,326
-88,708
-89,065
-89,399
-89,71
-90,002
-90,274
-90,529
-90,768
-90,992
-91,204
-91,406
-91,6
-91,788
-91,972
-92,156
-92,34
-92,529
-92,724
-92,927
-93,141
-93,367
-93,607
-93,862
-94,135
-94,425
-94,735
-95,065
-95,416
-95,789
-96,184
-96,602
-97,042
-97,506
-97,992
-98,5
-99,031
-99,582
-100,154
-100,745
-101,354
-101,979
-102,619
-103,272
-103,935
-104,604
-105,278
-105,953
-106,625
-107,293
-107,951
-108,599
-109,233
-109,85
-110,448
-111,024
-111,573
-112,092
-112,578
-113,028
-113,438
-113,804
-114,122
-114,39
-114,606
-114,764
-114,861
-114,889
-114,842
-114,72
-114,522
-114,251
-113,911
-113,506
-113,046
-112,546
-112,019
-111,477
-110,928
-110,375
-109,825
-109,286
-108,768
-108,285
-107,845
-107,446
-107,085
-106,757
-106,448
-106,142
-105,807
-105,4
-104,884
-104,238
-103,449
-102,519
-101,446
-100,224
-98,854
-97,333
-95,674
-93,897
-92,02
-90,064
-88,067
-86,079
-84,173
-82,441
-80,957
-79,771
-78,917
-78,413
-78,277
-78,527
-79,169
-80,202
-81,617
-83,405
-85,566
-88,099
-90,981
-94,17
-97,6
-101,185
-104,864
-108,596
-112,349
-116,102
-119,83
-123,512
-127,139
-130,711
-134,216
-137,62
-140,87
-143,9
-146,659
-149,105
-151,198
-152,895
-154,135
-154,844
-154,95
-154,382
-153,063
-150,892
-147,763
-143,574
-138,254
-131,75
-124,02
-115,074
-104,966
-93,823
-81,843
-69,192
-56,044
-42,647
-29,223
-15,89
-2,677
10,601
24,185
38,005
52,156
66,951
82,25
97,875
112,91
124,938
132,822
136,695
137,291
138,005
139,745
139,231
132,388
111,768
73,657
23,11
-31,177
-75,616
-99,633
-102,921
-90,862
-74,068
-62,058
-57,537
-59,363
-63,615
-66,944
-68,917
-70,392
-72,604
-76,004
-80
-83,698
-86,414
-87,943
-88,358
-87,818
-86,532
-84,711
-82,62
-80,575
-78,761
-77,248
-76,051
-75,124
-74,434
-73,954
-73,625
-73,385
-73,189
-73,006
-72,822
-72,624
-72,392
-72,097
-71,703
-71,172
-70,468
-69,568
-68,454
-67,122
-65,565
-63,778
-61,761
-59,519
-57,061
-54,4
-51,543
-48,496
-45,271
-41,876
-38,33
-34,66
-30,894
-27,057
-23,179
-19,286
-15,406
-11,571
-7,801
-4,11
-0,504
3,015
6,442
9,775
13,019
16,177
19,257
22,281
25,274
28,271
31,327
34,489
37,81
41,345
45,133
49,202
53,581
58,283
63,32
68,7
74,422
80,489
86,911
93,679
100,775
108,168
115,793
123,594
131,51
139,464
147,4
155,259
162,98
170,518
177,832
184,87
191,596
197,965
203,908
209,365
214,272
218,565
222,209
225,181
227,43
228,885
229,498
229,235
228,079
226,054
223,188
219,474
215,038
210,176
204,953
199,288
193,28
186,789
180,274
174,944
170,34
165,306
157,79
144,21
124,705
102,049
80,836
68,145
66,271
73,908
86,15
94,39
94,849
85,316
67,015
45,528
21,784
-0,803
-17,844
-28,675
-29,234
-20,285
-8,12
3,613
10,416
11,052
9,095
5,994
2,341
-1,689
-7,274
-14,212
-21,668
-29,269
-36,507
-42,966
-48,238
-51,98
-54,281
-55,661
-56,601
-57,33
-57,891
-58,272
-58,601
-59,027
-59,54
-59,955
-60,069
-59,773
-59,06
-57,998
-56,631
-54,963
-53,02
-50,849
-48,513
-46,075
-43,589
-41,079
-38,562
-36,066
-33,62
-31,273
-29,09
-27,115
-25,382
-23,911
-22,704
-21,764
-21,097
-20,689
-20,52
-20,552
-20,734
-21,029
-21,415
-21,868
-22,362
-22,859
-23,309
-23,674
-23,931
-24,061
-24,054
-23,901
-23,59
-23,127
-22,531
-21,827
-21,051
-20,224
-19,359
-18,467
-17,559
-16,65
-15,757
-14,892
-14,057
-13,255
-12,489
-11,761
-11,076
-10,429
-9,81
-9,206
-8,601
-7,986
-7,356
-6,709
-6,04
-5,35
-4,636
-3,902
-3,152
-2,391
-1,62
-0,841
-0,055
0,736
1,526
2,312
3,09
3,856
4,608
5,346
6,066
6,769
7,454
8,124
8,779
9,422
10,053
10,673
11,282
11,882
12,473
13,056
13,631
14,198
14,759
15,314
15,866
16,416
16,964
17,512
18,063
18,616
19,174
19,738
20,308
20,886
21,473
22,068
22,674
23,291
23,918
24,556
25,205
25,864
26,532
27,208
27,891
28,578
29,269
29,961
30,654
31,345
32,033
32,718
33,398
34,075
34,747
35,416
36,08
36,742
37,4
38,057
38,713
39,367
40,021
40,675
41,331
41,991
42,657
43,331
44,017
44,717
45,435
46,175
46,941
47,736
48,564
49,429
50,339
51,303
52,328
53,418
54,577
55,807
57,107
58,473
59,897
61,361
62,853
64,356
65,856
67,343
68,803
70,22
71,58
72,865
74,059
75,154
76,143
77,021
77,798
78,489
79,123
79,744
80,391
81,1
81,91
82,85
83,944
85,215
86,675
88,334
90,197
92,262
94,514
96,931
99,461
102,034
104,561
106,934
109,041
110,772
112,008
112,635
112,557
111,688
109,96
107,312
103,682
99,019
93,292
86,492
78,65
69,824
60,093
